wavenumber,intensity
1100,-0.0050331
1102,-0.0051376
1104,-0.005198
1106,-0.0052048
1108,-0.0051516
1110,-0.0050467
1112,-0.0049069
1114,-0.0046812
1116,-0.0043648
1118,-0.0039551
1120,-0.0034172
1122,-0.0027266
1124,-0.0017891
1126,-0.0006289
1128,0.0008118
1130,0.0025298
1132,0.0046066
1134,0.0069581
1136,0.0095973
1138,0.0124683
1140,0.0156331
1142,0.0189723
1144,0.0224313
1146,0.0261067
1148,0.0298902
1150,0.0337051
1152,0.0375384
1154,0.0413603
1156,0.0451722
1158,0.048852
1160,0.0523509
1162,0.055734
1164,0.0589085
1166,0.0618039
1168,0.0645778
1170,0.0672088
1172,0.0697737
1174,0.0722994
1176,0.0747881
1178,0.0773426
1180,0.0798874
1182,0.0823651
1184,0.0848301
1186,0.087182
1188,0.0893866
1190,0.0913793
1192,0.0931311
1194,0.0946371
1196,0.095867
1198,0.0967914
1200,0.097459
1202,0.0978532
1204,0.0979603
1206,0.0977642
1208,0.0972643
1210,0.0964324
1212,0.0952805
1214,0.0938628
1216,0.0921501
1218,0.0902361
1220,0.0882105
1222,0.0861043
1224,0.0839958
1226,0.0819073
1228,0.0798801
1230,0.0779876
1232,0.0761797
1234,0.0745231
1236,0.0730221
1238,0.0716403
1240,0.0704228
1242,0.0693263
1244,0.0683729
1246,0.0675361
1248,0.0667932
1250,0.0661365
1252,0.0655932
1254,0.0650961
1256,0.0646644
1258,0.0642599
1260,0.0638853
1262,0.0635501
1264,0.0632229
1266,0.0628847
1268,0.06254
1270,0.0621811
1272,0.0617865
1274,0.0613615
1276,0.0609123
1278,0.0604276
1280,0.0599065
1282,0.0593793
1284,0.0588614
1286,0.0583304
1288,0.0578398
1290,0.0573931
1292,0.0570052
1294,0.0566942
1296,0.0564548
1298,0.0562918
1300,0.0562216
1302,0.0562514
1304,0.0563859
1306,0.0566406
1308,0.0570314
1310,0.0575497
1312,0.0582327
1314,0.0590457
1316,0.0600066
1318,0.0611616
1320,0.0624554
1322,0.0639672
1324,0.0656633
1326,0.0675037
1328,0.0695989
1330,0.071849
1332,0.0742762
1334,0.0769011
1336,0.0796196
1338,0.0825768
1340,0.0856247
1342,0.0887264
1344,0.0919862
1346,0.0952684
1348,0.098582
1350,0.101913
1352,0.105148
1354,0.108449
1356,0.111652
1358,0.114686
1360,0.117662
1362,0.120463
1364,0.123193
1366,0.125814
1368,0.128295
1370,0.130803
1372,0.133215
1374,0.135584
1376,0.138006
1378,0.140481
1380,0.143239
1382,0.146281
1384,0.149634
1386,0.153508
1388,0.157774
1390,0.162486
1392,0.16766
1394,0.173141
1396,0.179366
1398,0.185973
1400,0.193057
1402,0.200768
1404,0.208839
1406,0.217443
1408,0.22635
1410,0.235349
1412,0.24476
1414,0.25406
1416,0.263286
1418,0.272413
1420,0.281107
1422,0.289703
1424,0.297783
1426,0.305203
1428,0.31228
1430,0.318591
1432,0.324414
1434,0.329531
1436,0.334002
1438,0.337996
1440,0.341393
1442,0.344294
1444,0.34677
1446,0.348844
1448,0.350636
1450,0.352141
1452,0.353364
1454,0.354417
1456,0.355278
1458,0.355992
1460,0.356565
1462,0.357003
1464,0.357284
1466,0.357438
1468,0.357454
1470,0.35728
1472,0.356969
1474,0.35649
1476,0.355897
1478,0.3552
1480,0.354427
1482,0.353565
1484,0.35263
1486,0.351614
1488,0.350586
1490,0.34946
1492,0.348309
1494,0.347073
1496,0.345816
1498,0.344501
1500,0.343129
1502,0.341734
1504,0.340321
1506,0.338922
1508,0.337516
1510,0.336136
1512,0.334786
1514,0.333537
1516,0.33231
1518,0.331122
1520,0.329987
1522,0.32891
1524,0.327948
1526,0.327035
1528,0.326196
1530,0.32544
1532,0.324741
1534,0.32414
1536,0.323577
1538,0.323071
1540,0.322636
1542,0.322254
1544,0.321877
1546,0.321528
1548,0.321181
1550,0.320889
1552,0.320611
1554,0.320334
1556,0.320047
1558,0.319789
1560,0.319544
1562,0.319258
1564,0.318948
1566,0.318594
1568,0.318197
1570,0.317731
1572,0.317197
1574,0.316573
1576,0.315861
1578,0.315041
1580,0.314155
1582,0.31316
1584,0.312023
1586,0.310807
1588,0.309469
1590,0.308046
1592,0.306469
1594,0.304782
1596,0.303032
1598,0.301195
1600,0.299333
1602,0.297365
1604,0.295363
1606,0.293364
1608,0.291323
1610,0.289312
1612,0.287264
1614,0.285223
1616,0.283255
1618,0.28128
1620,0.279347
1622,0.277422
1624,0.27551
1626,0.273682
1628,0.271876
1630,0.270123
1632,0.268382
1634,0.266671
1636,0.265048
1638,0.263453
1640,0.261929
1642,0.260451
1644,0.259035
1646,0.257754
1648,0.256533
1650,0.255418
1652,0.254411
1654,0.253531
1656,0.252826
1658,0.252252
1660,0.251795
1662,0.251431
1664,0.251173
1666,0.251068
1668,0.2511
1670,0.251337
1672,0.251862
1674,0.252679
1676,0.253838
1678,0.255345
1680,0.257186
1682,0.259457
1684,0.262064
1686,0.264964
1688,0.268083
1690,0.271231
1692,0.274434
1694,0.277454
1696,0.280234
1698,0.282738
1700,0.284862
1702,0.28666
1704,0.28809
1706,0.289166
1708,0.289987
1710,0.290635
1712,0.291207
1714,0.291738
1716,0.292276
1718,0.292801
1720,0.293283
1722,0.293745
1724,0.294109
1726,0.294371
1728,0.294501
1730,0.294523
1732,0.294512
1734,0.294508
1736,0.294615
1738,0.294882
1740,0.295361
1742,0.296008
1744,0.29676
1746,0.297589
1748,0.298395
1750,0.299101
1752,0.29975
1754,0.300279
1756,0.300746
1758,0.301133
1760,0.301428
1762,0.30164
1764,0.301782
1766,0.301888
1768,0.301929
1770,0.30196
1772,0.301945
1774,0.301861
1776,0.301646
1778,0.301272
1780,0.300702
1782,0.299957
1784,0.299023
1786,0.297933
1788,0.296747
1790,0.295391
1792,0.293992
1794,0.292518
1796,0.29102
1798,0.28956
1800,0.28805
1802,0.286608
1804,0.285208
1806,0.283904
1808,0.282672
1810,0.281476
1812,0.280386
1814,0.279368
1816,0.278375
1818,0.277366
1820,0.276324
1822,0.275289
1824,0.27415
1826,0.272967
1828,0.271706
1830,0.270392
1832,0.269035
1834,0.26757
1836,0.266076
1838,0.264567
1840,0.263138
1842,0.261785
1844,0.260503
1846,0.259423
1848,0.258548
1850,0.257894
1852,0.257508
1854,0.2574
1856,0.257559
1858,0.258044
1860,0.258845
1862,0.259967
1864,0.26142
1866,0.263269
1868,0.26552
1870,0.268207
1872,0.271557
1874,0.275432
1876,0.279991
1878,0.285206
1880,0.291162
1882,0.298012
1884,0.30575
1886,0.314676
1888,0.324482
1890,0.335411
1892,0.347242
1894,0.359811
1896,0.373182
1898,0.386856
1900,0.400918
1902,0.414886
1904,0.428529
1906,0.441685
1908,0.454023
1910,0.465713
1912,0.476412
1914,0.486347
1916,0.49531
1918,0.503301
1920,0.510449
1922,0.516608
1924,0.521854
1926,0.526024
1928,0.529183
1930,0.531185
1932,0.532146
1934,0.532087
1936,0.531076
1938,0.529198
1940,0.52666
1942,0.52358
1944,0.520126
1946,0.516386
1948,0.51246
1950,0.508398
1952,0.50425
1954,0.500148
1956,0.49603
1958,0.491962
1960,0.487949
1962,0.483952
1964,0.48002
1966,0.476132
1968,0.472302
1970,0.468519
1972,0.464741
1974,0.46103
1976,0.457321
1978,0.453667
1980,0.450031
1982,0.446446
1984,0.442962
1986,0.439567
1988,0.436325
1990,0.433236
1992,0.430308
1994,0.42763
1996,0.425205
1998,0.423002
2000,0.421105
2002,0.419535
2004,0.418319
2006,0.417429
2008,0.416897
2010,0.416741
2012,0.416981
2014,0.417582
2016,0.418622
2018,0.42007
2020,0.421885
2022,0.424062
2024,0.426569
2026,0.429431
2028,0.432681
2030,0.436072
2032,0.43962
2034,0.443382
2036,0.447224
2038,0.451195
2040,0.455218
2042,0.459316
2044,0.463492
2046,0.467582
2048,0.471611
2050,0.475523
2052,0.479408
2054,0.483116
2056,0.48665
2058,0.490047
2060,0.49325
2062,0.49631
2064,0.499206
2066,0.502023
2068,0.504646
2070,0.507135
2072,0.509485
2074,0.511732
2076,0.513849
2078,0.51582
2080,0.517697
2082,0.519406
2084,0.521007
2086,0.522451
2088,0.523759
2090,0.524986
2092,0.526085
2094,0.527057
2096,0.527826
2098,0.528483
2100,0.529013
2102,0.529371
2104,0.529565
2106,0.529593
2108,0.529548
2110,0.529362
2112,0.528983
2114,0.528528
2116,0.527896
2118,0.527087
2120,0.526121
2122,0.525055
2124,0.523803
2126,0.522392
2128,0.52081
2130,0.519103
2132,0.51732
2134,0.51543
2136,0.513501
2138,0.511594
2140,0.509646
2142,0.507585
2144,0.505499
2146,0.503251
2148,0.501045
2150,0.498722
2152,0.496394
2154,0.494019
2156,0.491658
2158,0.489351
2160,0.487062
2162,0.484867
2164,0.482655
2166,0.480511
2168,0.478344
2170,0.476264
2172,0.474111
2174,0.471983
2176,0.46975
2178,0.4675
2180,0.465291
2182,0.463026
2184,0.460818
2186,0.458563
2188,0.45637
2190,0.454164
2192,0.452088
2194,0.449983
2196,0.448007
2198,0.446015
2200,0.444159
2202,0.442317
2204,0.440585
2206,0.438931
2208,0.437301
2210,0.435843
2212,0.43438
2214,0.433089
2216,0.431956
2218,0.430996
2220,0.430135
2222,0.429458
2224,0.429032
2226,0.428925
2228,0.429139
2230,0.429728
2232,0.430739
2234,0.432164
2236,0.434101
2238,0.436509
2240,0.439402
2242,0.442796
2244,0.446657
2246,0.450967
2248,0.455651
2250,0.460812
2252,0.466206
2254,0.471947
2256,0.477634
2258,0.483547
2260,0.489257
2262,0.495078
2264,0.500634
2266,0.506206
2268,0.511632
2270,0.517144
2272,0.522599
2274,0.528092
2276,0.533333
2278,0.538256
2280,0.542487
2282,0.545726
2284,0.547916
2286,0.549065
2288,0.54944
2290,0.549309
2292,0.549229
2294,0.549339
2296,0.549992
2298,0.551081
2300,0.552777
2302,0.554925
2304,0.557272
2306,0.559482
2308,0.561359
2310,0.562817
2312,0.563757
2314,0.564229
2316,0.564405
2318,0.564308
2320,0.564067
2322,0.563746
2324,0.563238
2326,0.562662
2328,0.561899
2330,0.561094
2332,0.560309
2334,0.559459
2336,0.558858
2338,0.558472
2340,0.558085
2342,0.557688
2344,0.557077
2346,0.556428
2348,0.555518
2350,0.554379
2352,0.553083
2354,0.551882
2356,0.550772
2358,0.549993
2360,0.549435
2362,0.549056
2364,0.548834
2366,0.548682
2368,0.548526
2370,0.54836
2372,0.548159
2374,0.54796
2376,0.547699
2378,0.547515
2380,0.547381
2382,0.547246
2384,0.547238
2386,0.547332
2388,0.547668
2390,0.548238
2392,0.549017
2394,0.550034
2396,0.551474
2398,0.553137
2400,0.555192
2402,0.557503
2404,0.560042
2406,0.562842
2408,0.565759
2410,0.568838
2412,0.571927
2414,0.575266
2416,0.578521
2418,0.581988
2420,0.585517
2422,0.589105
2424,0.592625
2426,0.596163
2428,0.599788
2430,0.603448
2432,0.607134
2434,0.61105
2436,0.615075
2438,0.619115
2440,0.623228
2442,0.627137
2444,0.631083
2446,0.635048
2448,0.638909
2450,0.64269
2452,0.646248
2454,0.649731
2456,0.653353
2458,0.656971
2460,0.660523
2462,0.664017
2464,0.667393
2466,0.670616
2468,0.673769
2470,0.676734
2472,0.679528
2474,0.68196
2476,0.684243
2478,0.68648
2480,0.688382
2482,0.689817
2484,0.690972
2486,0.691934
2488,0.692569
2490,0.692862
2492,0.692934
2494,0.692756
2496,0.692372
2498,0.691873
