wavenumber,intensity
1100,-0.0080348
1102,-0.0081115
1104,-0.0081672
1106,-0.0081608
1108,-0.0081182
1110,-0.0080224
1112,-0.0079021
1114,-0.0076984
1116,-0.0073913
1118,-0.0069942
1120,-0.0064809
1122,-0.0058115
1124,-0.0048914
1126,-0.003758
1128,-0.0023159
1130,-0.0006051
1132,0.0014733
1134,0.0038347
1136,0.0064906
1138,0.0093749
1140,0.0125576
1142,0.0159149
1144,0.0193726
1146,0.0230329
1148,0.0267753
1150,0.0305316
1152,0.0343039
1154,0.0380355
1156,0.0417452
1158,0.0453262
1160,0.0487328
1162,0.0520379
1164,0.0551559
1166,0.0580268
1168,0.060814
1170,0.0634609
1172,0.0660661
1174,0.0686231
1176,0.0711364
1178,0.073694
1180,0.0762404
1182,0.0787052
1184,0.0811439
1186,0.0834771
1188,0.0856504
1190,0.0876146
1192,0.0893432
1194,0.0908148
1196,0.0920105
1198,0.0928869
1200,0.0934941
1202,0.0938124
1204,0.0938391
1206,0.0935656
1208,0.0929969
1210,0.0921155
1212,0.0909356
1214,0.0895223
1216,0.087843
1218,0.0859882
1220,0.0840518
1222,0.0820481
1224,0.080051
1226,0.0780711
1228,0.0761621
1230,0.0743725
1232,0.0726635
1234,0.0710925
1236,0.0696675
1238,0.068371
1240,0.06723
1242,0.0662085
1244,0.0653291
1246,0.0645605
1248,0.063884
1250,0.0632894
1252,0.0628039
1254,0.0623595
1256,0.0619773
1258,0.0616165
1260,0.0612864
1262,0.0609894
1264,0.0606893
1266,0.0603902
1268,0.0600721
1270,0.0597345
1272,0.0593765
1274,0.0589828
1276,0.0585531
1278,0.0580972
1280,0.057602
1282,0.0571051
1284,0.0566014
1286,0.0560921
1288,0.0556267
1290,0.055194
1292,0.0548189
1294,0.0545089
1296,0.0542666
1298,0.0541075
1300,0.0540534
1302,0.0540966
1304,0.0542387
1306,0.0544925
1308,0.0548871
1310,0.0553904
1312,0.0560706
1314,0.0568766
1316,0.0578313
1318,0.0589697
1320,0.0602541
1322,0.0617489
1324,0.0634258
1326,0.0652342
1328,0.0672844
1330,0.0694972
1332,0.0718835
1334,0.0744619
1336,0.0771159
1338,0.0800045
1340,0.082991
1342,0.0860015
1344,0.0891744
1346,0.0923737
1348,0.0956075
1350,0.0988643
1352,0.102033
1354,0.105266
1356,0.108408
1358,0.111375
1360,0.114302
1362,0.117012
1364,0.119674
1366,0.122222
1368,0.124643
1370,0.127101
1372,0.129463
1374,0.131796
1376,0.134185
1378,0.136624
1380,0.139352
1382,0.142344
1384,0.145628
1386,0.149409
1388,0.153593
1390,0.158249
1392,0.163399
1394,0.168873
1396,0.175151
1398,0.1818
1400,0.188937
1402,0.1967
1404,0.204862
1406,0.213518
1408,0.222487
1410,0.231605
1412,0.241149
1414,0.250639
1416,0.260079
1418,0.269415
1420,0.278357
1422,0.287237
1424,0.295595
1426,0.303296
1428,0.31067
1430,0.317274
1432,0.323396
1434,0.328767
1436,0.33344
1438,0.337599
1440,0.341149
1442,0.344158
1444,0.346714
1446,0.348856
1448,0.350716
1450,0.352271
1452,0.353549
1454,0.354658
1456,0.35557
1458,0.356342
1460,0.356946
1462,0.357432
1464,0.357782
1466,0.357962
1468,0.358025
1470,0.357882
1472,0.357612
1474,0.357173
1476,0.356606
1478,0.355921
1480,0.355141
1482,0.354256
1484,0.353299
1486,0.352269
1488,0.351205
1490,0.350049
1492,0.348851
1494,0.347601
1496,0.346324
1498,0.344987
1500,0.343582
1502,0.342194
1504,0.34079
1506,0.339397
1508,0.338008
1510,0.336677
1512,0.335357
1514,0.334076
1516,0.3328
1518,0.331644
1520,0.330525
1522,0.329467
1524,0.3285
1526,0.327568
1528,0.326719
1530,0.325924
1532,0.325212
1534,0.324578
1536,0.324001
1538,0.323489
1540,0.323061
1542,0.322635
1544,0.322235
1546,0.321865
1548,0.32149
1550,0.321174
1552,0.320876
1554,0.320602
1556,0.320336
1558,0.320072
1560,0.319781
1562,0.319481
1564,0.319177
1566,0.318821
1568,0.318408
1570,0.317912
1572,0.317356
1574,0.316705
1576,0.315965
1578,0.315105
1580,0.314171
1582,0.313113
1584,0.311925
1586,0.310619
1588,0.309191
1590,0.307663
1592,0.305989
1594,0.304187
1596,0.302322
1598,0.300343
1600,0.298333
1602,0.296218
1604,0.294061
1606,0.291918
1608,0.289742
1610,0.287587
1612,0.285409
1614,0.283249
1616,0.281138
1618,0.279014
1620,0.276965
1622,0.274932
1624,0.2729
1626,0.270934
1628,0.26899
1630,0.267107
1632,0.265233
1634,0.263401
1636,0.26166
1638,0.259939
1640,0.258284
1642,0.256703
1644,0.255181
1646,0.253752
1648,0.252369
1650,0.251097
1652,0.249924
1654,0.248871
1656,0.247966
1658,0.247179
1660,0.246519
1662,0.245962
1664,0.245534
1666,0.245278
1668,0.245191
1670,0.245349
1672,0.245813
1674,0.246577
1676,0.247699
1678,0.249203
1680,0.251085
1682,0.253456
1684,0.256182
1686,0.259199
1688,0.262455
1690,0.265719
1692,0.269011
1694,0.272075
1696,0.274832
1698,0.277251
1700,0.279236
1702,0.280838
1704,0.282017
1706,0.282852
1708,0.283416
1710,0.283824
1712,0.284182
1714,0.284523
1716,0.28489
1718,0.285319
1720,0.285753
1722,0.286227
1724,0.286684
1726,0.287086
1728,0.287436
1730,0.287748
1732,0.288034
1734,0.28835
1736,0.288777
1738,0.289342
1740,0.290054
1742,0.290895
1744,0.291814
1746,0.292754
1748,0.293615
1750,0.294325
1752,0.294944
1754,0.295436
1756,0.295844
1758,0.296162
1760,0.296445
1762,0.296659
1764,0.296854
1766,0.29704
1768,0.297205
1770,0.297369
1772,0.297478
1774,0.297494
1776,0.297358
1778,0.297034
1780,0.296459
1782,0.295664
1784,0.294665
1786,0.293465
1788,0.292151
1790,0.290658
1792,0.289112
1794,0.287513
1796,0.285889
1798,0.284303
1800,0.282694
1802,0.281154
1804,0.279678
1806,0.278284
1808,0.277002
1810,0.275787
1812,0.274679
1814,0.273624
1816,0.272633
1818,0.271643
1820,0.270597
1822,0.269538
1824,0.268368
1826,0.267151
1828,0.265849
1830,0.264487
1832,0.263065
1834,0.261556
1836,0.260038
1838,0.258466
1840,0.256937
1842,0.255491
1844,0.254139
1846,0.25297
1848,0.25204
1850,0.251347
1852,0.250922
1854,0.250805
1856,0.250992
1858,0.251499
1860,0.252342
1862,0.253554
1864,0.255133
1866,0.257121
1868,0.259551
1870,0.262423
1872,0.265961
1874,0.269997
1876,0.27472
1878,0.280148
1880,0.28635
1882,0.293514
1884,0.301628
1886,0.311015
1888,0.321346
1890,0.332837
1892,0.345263
1894,0.358413
1896,0.372468
1898,0.386803
1900,0.401591
1902,0.416291
1904,0.430576
1906,0.444326
1908,0.457299
1910,0.469583
1912,0.480877
1914,0.491371
1916,0.500841
1918,0.509305
1920,0.516904
1922,0.523538
1924,0.529131
1926,0.533652
1928,0.537087
1930,0.539315
1932,0.540387
1934,0.540416
1936,0.539462
1938,0.537567
1940,0.534989
1942,0.531812
1944,0.528198
1946,0.52431
1948,0.520182
1950,0.51598
1952,0.511731
1954,0.507459
1956,0.503156
1958,0.498906
1960,0.494741
1962,0.490622
1964,0.486576
1966,0.482566
1968,0.478591
1970,0.474665
1972,0.470731
1974,0.466862
1976,0.462985
1978,0.459127
1980,0.455283
1982,0.451506
1984,0.447802
1986,0.444193
1988,0.440744
1990,0.437447
1992,0.434338
1994,0.431424
1996,0.428772
1998,0.426419
2000,0.424362
2002,0.42265
2004,0.421314
2006,0.420361
2008,0.41973
2010,0.419551
2012,0.419745
2014,0.420387
2016,0.421402
2018,0.422853
2020,0.424715
2022,0.426957
2024,0.429554
2026,0.432543
2028,0.43591
2030,0.439493
2032,0.443221
2034,0.447159
2036,0.451229
2038,0.455441
2040,0.459781
2042,0.464104
2044,0.468515
2046,0.472864
2048,0.477193
2050,0.481402
2052,0.485512
2054,0.489422
2056,0.493161
2058,0.496739
2060,0.50013
2062,0.503349
2064,0.506402
2066,0.509336
2068,0.512073
2070,0.514695
2072,0.517203
2074,0.519553
2076,0.521818
2078,0.5239
2080,0.525884
2082,0.527724
2084,0.529436
2086,0.531
2088,0.532478
2090,0.533747
2092,0.534875
2094,0.535877
2096,0.536755
2098,0.537484
2100,0.538014
2102,0.53841
2104,0.538659
2106,0.538709
2108,0.538669
2110,0.538466
2112,0.538114
2114,0.537611
2116,0.536926
2118,0.536154
2120,0.535198
2122,0.534146
2124,0.53287
2126,0.53147
2128,0.529853
2130,0.528141
2132,0.526338
2134,0.524487
2136,0.522586
2138,0.520565
2140,0.518534
2142,0.516383
2144,0.514311
2146,0.512003
2148,0.509719
2150,0.507326
2152,0.504915
2154,0.502465
2156,0.50007
2158,0.497711
2160,0.495342
2162,0.492999
2164,0.490631
2166,0.488354
2168,0.486015
2170,0.483801
2172,0.481441
2174,0.479101
2176,0.476754
2178,0.474378
2180,0.472014
2182,0.469615
2184,0.467244
2186,0.464768
2188,0.462397
2190,0.459943
2192,0.457711
2194,0.455423
2196,0.453259
2198,0.451059
2200,0.449007
2202,0.446952
2204,0.445034
2206,0.443144
2208,0.441268
2210,0.439551
2212,0.437987
2214,0.436479
2216,0.435029
2218,0.433793
2220,0.432698
2222,0.431782
2224,0.431146
2226,0.430834
2228,0.43082
2230,0.431183
2232,0.431942
2234,0.433129
2236,0.434911
2238,0.437173
2240,0.439904
2242,0.443213
2244,0.447125
2246,0.451592
2248,0.456472
2250,0.461898
2252,0.467644
2254,0.473813
2256,0.480022
2258,0.486476
2260,0.492661
2262,0.499038
2264,0.505183
2266,0.511335
2268,0.517425
2270,0.523585
2272,0.529679
2274,0.535816
2276,0.541683
2278,0.547257
2280,0.55204
2282,0.555704
2284,0.558131
2286,0.559331
2288,0.559618
2290,0.559374
2292,0.558963
2294,0.558828
2296,0.559281
2298,0.560321
2300,0.562094
2302,0.564308
2304,0.566794
2306,0.569171
2308,0.571253
2310,0.572811
2312,0.573808
2314,0.57432
2316,0.574451
2318,0.574285
2320,0.573909
2322,0.57335
2324,0.572639
2326,0.571889
2328,0.570902
2330,0.569878
2332,0.568952
2334,0.568089
2336,0.567322
2338,0.566704
2340,0.566074
2342,0.565604
2344,0.564942
2346,0.5642
2348,0.563073
2350,0.561818
2352,0.560537
2354,0.559327
2356,0.558191
2358,0.557494
2360,0.556927
2362,0.556621
2364,0.556423
2366,0.556389
2368,0.55632
2370,0.556287
2372,0.556091
2374,0.555911
2376,0.555684
2378,0.555496
2380,0.555275
2382,0.555146
2384,0.555161
2386,0.555364
2388,0.555743
2390,0.556379
2392,0.557347
2394,0.558599
2396,0.560192
2398,0.562172
2400,0.564395
2402,0.56697
2404,0.569769
2406,0.572873
2408,0.57602
2410,0.579364
2412,0.582687
2414,0.586377
2416,0.590014
2418,0.593766
2420,0.597369
2422,0.601143
2424,0.604939
2426,0.608749
2428,0.612521
2430,0.616421
2432,0.620163
2434,0.624184
2436,0.628343
2438,0.632453
2440,0.636725
2442,0.640859
2444,0.644992
2446,0.649153
2448,0.653129
2450,0.656939
2452,0.660618
2454,0.664426
2456,0.66817
2458,0.671637
2460,0.675222
2462,0.678676
2464,0.682093
2466,0.685418
2468,0.688627
2470,0.691521
2472,0.694298
2474,0.696886
2476,0.699504
2478,0.701557
2480,0.703278
2482,0.70461
2484,0.705903
2486,0.706664
2488,0.707174
2490,0.707395
2492,0.707527
2494,0.707521
2496,0.707289
2498,0.706863
