wavenumber,intensity
1100,-0.0096408
1102,-0.0097394
1104,-0.0097921
1106,-0.0097745
1108,-0.009725
1110,-0.009585
1112,-0.0094028
1114,-0.0091561
1116,-0.0088072
1118,-0.0083579
1120,-0.0077418
1122,-0.0069772
1124,-0.0059191
1126,-0.0046117
1128,-0.0029792
1130,-0.0010198
1132,0.0013436
1134,0.0040225
1136,0.0070326
1138,0.0102897
1140,0.0138775
1142,0.0176509
1144,0.0215561
1146,0.0256596
1148,0.0298723
1150,0.0341055
1152,0.0383521
1154,0.0425435
1156,0.0466961
1158,0.0506977
1160,0.0545027
1162,0.0581759
1164,0.0616075
1166,0.0647451
1168,0.0677473
1170,0.0705989
1172,0.0733869
1174,0.0761168
1176,0.0788114
1178,0.08156
1180,0.0843177
1182,0.0869844
1184,0.0896319
1186,0.0921715
1188,0.0945407
1190,0.0966627
1192,0.098538
1194,0.100142
1196,0.10145
1198,0.102412
1200,0.103108
1202,0.103484
1204,0.103546
1206,0.103275
1208,0.102682
1210,0.101735
1212,0.100446
1214,0.0988761
1216,0.0970016
1218,0.0949312
1220,0.0927469
1222,0.0904922
1224,0.0882472
1226,0.0860057
1228,0.0838636
1230,0.0818642
1232,0.0799538
1234,0.0781789
1236,0.0765889
1238,0.0751261
1240,0.0738476
1242,0.0726936
1244,0.0716833
1246,0.0708148
1248,0.0700538
1250,0.0693887
1252,0.068827
1254,0.0683147
1256,0.0678828
1258,0.0674861
1260,0.0671161
1262,0.0667682
1264,0.0664282
1266,0.0660983
1268,0.0657588
1270,0.065389
1272,0.0649911
1274,0.0645684
1276,0.0641142
1278,0.063626
1280,0.0630975
1282,0.0625598
1284,0.0620266
1286,0.0614926
1288,0.0610075
1290,0.060555
1292,0.0601729
1294,0.0598672
1296,0.0596388
1298,0.0595104
1300,0.0594788
1302,0.0595524
1304,0.0597494
1306,0.0600746
1308,0.0605372
1310,0.0611314
1312,0.0619049
1314,0.0628375
1316,0.0639341
1318,0.0652271
1320,0.0666594
1322,0.0683278
1324,0.0702007
1326,0.0722195
1328,0.0745159
1330,0.0769709
1332,0.0796097
1334,0.0824445
1336,0.0853705
1338,0.0885316
1340,0.0917849
1342,0.0950665
1344,0.0985074
1346,0.10193
1348,0.105409
1350,0.108888
1352,0.112264
1354,0.115736
1356,0.11909
1358,0.122278
1360,0.125441
1362,0.128426
1364,0.131357
1366,0.134172
1368,0.136846
1370,0.139566
1372,0.142183
1374,0.144742
1376,0.147379
1378,0.150075
1380,0.153065
1382,0.156386
1384,0.16007
1386,0.164322
1388,0.169014
1390,0.174198
1392,0.179897
1394,0.185933
1396,0.192778
1398,0.200025
1400,0.207741
1402,0.216031
1404,0.22477
1406,0.234093
1408,0.243724
1410,0.253376
1412,0.263473
1414,0.273419
1416,0.283276
1418,0.292996
1420,0.302254
1422,0.311416
1424,0.320051
1426,0.327982
1428,0.335542
1430,0.342307
1432,0.348568
1434,0.354074
1436,0.358854
1438,0.363095
1440,0.366696
1442,0.369761
1444,0.372381
1446,0.374562
1448,0.376446
1450,0.378028
1452,0.379331
1454,0.380452
1456,0.381365
1458,0.382145
1460,0.382749
1462,0.383192
1464,0.383496
1466,0.383649
1468,0.38364
1470,0.383447
1472,0.383097
1474,0.382586
1476,0.381937
1478,0.381156
1480,0.380274
1482,0.379313
1484,0.378275
1486,0.377144
1488,0.37597
1490,0.374714
1492,0.373429
1494,0.372028
1496,0.370625
1498,0.369204
1500,0.367714
1502,0.366223
1504,0.364765
1506,0.363307
1508,0.361894
1510,0.360474
1512,0.35905
1514,0.357712
1516,0.356411
1518,0.355131
1520,0.353915
1522,0.352749
1524,0.35172
1526,0.350701
1528,0.349745
1530,0.348866
1532,0.348085
1534,0.347394
1536,0.34672
1538,0.346121
1540,0.345601
1542,0.345111
1544,0.344651
1546,0.344265
1548,0.343879
1550,0.343494
1552,0.343142
1554,0.342803
1556,0.342476
1558,0.342177
1560,0.341874
1562,0.341558
1564,0.341181
1566,0.34078
1568,0.340327
1570,0.339807
1572,0.339208
1574,0.338511
1576,0.337735
1578,0.336843
1580,0.335874
1582,0.334757
1584,0.333513
1586,0.332169
1588,0.330689
1590,0.329125
1592,0.327406
1594,0.32556
1596,0.323647
1598,0.321648
1600,0.319603
1602,0.317464
1604,0.315273
1606,0.313108
1608,0.310894
1610,0.30871
1612,0.306488
1614,0.304268
1616,0.302105
1618,0.299931
1620,0.297817
1622,0.295722
1624,0.293643
1626,0.291648
1628,0.28967
1630,0.287744
1632,0.285835
1634,0.283969
1636,0.282183
1638,0.280419
1640,0.278744
1642,0.277114
1644,0.275551
1646,0.274109
1648,0.272717
1650,0.271454
1652,0.270302
1654,0.269288
1656,0.268435
1658,0.267723
1660,0.267127
1662,0.266641
1664,0.266269
1666,0.266082
1668,0.266068
1670,0.266275
1672,0.266807
1674,0.267655
1676,0.268893
1678,0.270539
1680,0.272562
1682,0.275116
1684,0.278025
1686,0.281262
1688,0.284741
1690,0.288251
1692,0.291803
1694,0.295147
1696,0.298206
1698,0.300957
1700,0.303294
1702,0.305259
1704,0.306786
1706,0.307921
1708,0.308745
1710,0.309362
1712,0.309904
1714,0.310395
1716,0.310892
1718,0.311408
1720,0.311914
1722,0.312415
1724,0.312839
1726,0.313193
1728,0.313429
1730,0.31354
1732,0.31359
1734,0.313687
1736,0.31389
1738,0.314259
1740,0.314846
1742,0.315609
1744,0.316497
1746,0.317446
1748,0.318386
1750,0.319213
1752,0.319938
1754,0.320533
1756,0.321039
1758,0.321442
1760,0.321752
1762,0.321985
1764,0.322138
1766,0.322224
1768,0.322293
1770,0.322335
1772,0.322339
1774,0.322261
1776,0.322048
1778,0.321621
1780,0.320983
1782,0.320133
1784,0.319058
1786,0.317825
1788,0.316467
1790,0.314935
1792,0.313345
1794,0.311695
1796,0.310006
1798,0.308357
1800,0.306659
1802,0.305069
1804,0.303509
1806,0.302056
1808,0.300729
1810,0.299432
1812,0.298262
1814,0.297109
1816,0.29601
1818,0.294914
1820,0.293785
1822,0.292641
1824,0.29139
1826,0.290093
1828,0.288746
1830,0.287286
1832,0.285796
1834,0.284203
1836,0.282626
1838,0.281021
1840,0.279475
1842,0.278006
1844,0.276672
1846,0.275554
1848,0.274639
1850,0.273978
1852,0.273575
1854,0.27351
1856,0.273751
1858,0.274343
1860,0.275269
1862,0.27657
1864,0.278198
1866,0.280301
1868,0.282892
1870,0.286003
1872,0.289894
1874,0.294392
1876,0.299632
1878,0.305605
1880,0.312428
1882,0.320209
1884,0.328989
1886,0.339051
1888,0.350073
1890,0.362295
1892,0.375468
1894,0.389347
1896,0.40412
1898,0.419236
1900,0.43474
1902,0.450066
1904,0.46506
1906,0.479461
1908,0.492978
1910,0.505788
1912,0.5175
1914,0.528336
1916,0.53811
1918,0.546889
1920,0.554704
1922,0.561501
1924,0.567274
1926,0.571911
1928,0.575467
1930,0.577782
1932,0.578915
1934,0.57901
1936,0.578062
1938,0.576172
1940,0.573533
1942,0.570339
1944,0.566716
1946,0.562771
1948,0.55856
1950,0.554239
1952,0.549812
1954,0.545357
1956,0.540937
1958,0.536567
1960,0.532232
1962,0.527943
1964,0.523686
1966,0.519482
1968,0.515311
1970,0.51117
1972,0.507051
1974,0.502976
1976,0.498912
1978,0.494907
1980,0.490899
1982,0.486926
1984,0.483024
1986,0.479228
1988,0.475638
1990,0.472166
1992,0.468876
1994,0.465803
1996,0.462998
1998,0.460467
2000,0.458233
2002,0.456345
2004,0.454848
2006,0.453687
2008,0.452916
2010,0.452575
2012,0.452637
2014,0.453085
2016,0.45395
2018,0.455278
2020,0.456969
2022,0.459088
2024,0.461559
2026,0.464432
2028,0.467708
2030,0.471198
2032,0.474908
2034,0.478834
2036,0.482855
2038,0.487039
2040,0.491322
2042,0.49564
2044,0.500036
2046,0.504344
2048,0.508637
2050,0.512796
2052,0.516854
2054,0.520705
2056,0.524368
2058,0.527886
2060,0.531229
2062,0.53439
2064,0.537371
2066,0.54024
2068,0.542939
2070,0.545513
2072,0.547926
2074,0.550242
2076,0.552381
2078,0.554418
2080,0.556379
2082,0.558126
2084,0.559784
2086,0.561283
2088,0.562704
2090,0.563936
2092,0.565024
2094,0.566002
2096,0.566774
2098,0.56746
2100,0.567924
2102,0.568327
2104,0.568575
2106,0.568624
2108,0.568544
2110,0.568346
2112,0.567966
2114,0.567473
2116,0.566841
2118,0.565987
2120,0.565004
2122,0.563858
2124,0.562572
2126,0.561128
2128,0.559471
2130,0.557741
2132,0.555899
2134,0.554004
2136,0.552088
2138,0.550078
2140,0.548085
2142,0.545923
2144,0.543804
2146,0.541482
2148,0.53915
2150,0.536716
2152,0.534272
2154,0.531862
2156,0.529427
2158,0.52702
2160,0.5246
2162,0.522312
2164,0.519957
2166,0.517765
2168,0.515457
2170,0.513276
2172,0.510979
2174,0.50869
2176,0.506304
2178,0.503899
2180,0.501472
2182,0.498955
2184,0.49647
2186,0.493947
2188,0.491495
2190,0.489057
2192,0.486735
2194,0.484342
2196,0.482119
2198,0.479881
2200,0.477749
2202,0.475636
2204,0.473637
2206,0.471682
2208,0.469842
2210,0.468102
2212,0.466488
2214,0.465028
2216,0.463617
2218,0.462453
2220,0.461425
2222,0.460637
2224,0.460078
2226,0.459799
2228,0.459906
2230,0.460417
2232,0.461339
2234,0.462718
2236,0.464592
2238,0.467014
2240,0.47
2242,0.473563
2244,0.477723
2246,0.482428
2248,0.487561
2250,0.493189
2252,0.499126
2254,0.505399
2256,0.511747
2258,0.518368
2260,0.524822
2262,0.531305
2264,0.537633
2266,0.544023
2268,0.550153
2270,0.556439
2272,0.562633
2274,0.568785
2276,0.574779
2278,0.580382
2280,0.585211
2282,0.589085
2284,0.591675
2286,0.593188
2288,0.593756
2290,0.593733
2292,0.593637
2294,0.593879
2296,0.594643
2298,0.596028
2300,0.598157
2302,0.600659
2304,0.603504
2306,0.60597
2308,0.60808
2310,0.609452
2312,0.610275
2314,0.610484
2316,0.6103
2318,0.609954
2320,0.609422
2322,0.608813
2324,0.608204
2326,0.60736
2328,0.606561
2330,0.605741
2332,0.604907
2334,0.604188
2336,0.603667
2338,0.603272
2340,0.602972
2342,0.602749
2344,0.602371
2346,0.601754
2348,0.600732
2350,0.599442
2352,0.597985
2354,0.596563
2356,0.595263
2358,0.594316
2360,0.59364
2362,0.593291
2364,0.59313
2366,0.592952
2368,0.592888
2370,0.592779
2372,0.592635
2374,0.592429
2376,0.592275
2378,0.592058
2380,0.591967
2382,0.592
2384,0.59213
2386,0.592369
2388,0.592822
2390,0.593538
2392,0.594463
2394,0.595745
2396,0.597305
2398,0.599185
2400,0.601346
2402,0.603855
2404,0.606602
2406,0.609736
2408,0.61298
2410,0.616296
2412,0.619678
2414,0.623331
2416,0.626986
2418,0.630724
2420,0.634449
2422,0.638112
2424,0.64187
2426,0.645823
2428,0.649634
2430,0.653544
2432,0.657456
2434,0.661434
2436,0.665617
2438,0.669938
2440,0.674163
2442,0.678334
2444,0.682544
2446,0.686769
2448,0.690702
2450,0.694619
2452,0.698309
2454,0.702097
2456,0.705932
2458,0.709536
2460,0.713078
2462,0.716465
2464,0.719847
2466,0.72313
2468,0.72655
2470,0.729648
2472,0.732589
2474,0.735072
2476,0.737512
2478,0.739623
2480,0.741416
2482,0.74284
2484,0.744137
2486,0.745169
2488,0.74581
2490,0.746141
2492,0.746225
2494,0.746176
2496,0.745807
2498,0.74527
