wavenumber,intensity
1100,-0.0031553
1102,-0.0032551
1104,-0.0032971
1106,-0.0032958
1108,-0.0032561
1110,-0.0031353
1112,-0.0029661
1114,-0.0027332
1116,-0.002395
1118,-0.001951
1120,-0.0013393
1122,-0.0005669
1124,0.000501
1126,0.0018236
1128,0.0034896
1130,0.0054901
1132,0.0079221
1134,0.0106902
1136,0.0138035
1138,0.0171753
1140,0.0209138
1142,0.0248375
1144,0.0289087
1146,0.0331988
1148,0.0375981
1150,0.0420303
1152,0.046488
1154,0.0508982
1156,0.0552754
1158,0.059504
1160,0.0635171
1162,0.0673982
1164,0.0710301
1166,0.0743476
1168,0.077526
1170,0.0805399
1172,0.0834869
1174,0.0863776
1176,0.0892379
1178,0.0921604
1180,0.0951026
1182,0.0979589
1184,0.100805
1186,0.103543
1188,0.106101
1190,0.108402
1192,0.110435
1194,0.11219
1196,0.113632
1198,0.114713
1200,0.115503
1202,0.115962
1204,0.11608
1206,0.115841
1208,0.115242
1210,0.114262
1212,0.112903
1214,0.111233
1216,0.109205
1218,0.106963
1220,0.104595
1222,0.102128
1224,0.0996718
1226,0.0972307
1228,0.0949011
1230,0.0927266
1232,0.0906509
1234,0.0887436
1236,0.0870357
1238,0.085469
1240,0.084096
1242,0.0828685
1244,0.0817933
1246,0.0808646
1248,0.0800501
1250,0.07934
1252,0.0787384
1254,0.0781957
1256,0.0777281
1258,0.0772943
1260,0.0768977
1262,0.076522
1264,0.0761551
1266,0.0757943
1268,0.0754184
1270,0.0750225
1272,0.0746033
1274,0.0741495
1276,0.0736568
1278,0.0731349
1280,0.0725642
1282,0.071988
1284,0.0714112
1286,0.0708464
1288,0.0703262
1290,0.069844
1292,0.0694247
1294,0.0690868
1296,0.0688419
1298,0.0686882
1300,0.0686395
1302,0.0687064
1304,0.0689005
1306,0.0692244
1308,0.0696928
1310,0.070301
1312,0.0710997
1314,0.0720486
1316,0.0731775
1318,0.0745162
1320,0.0760023
1322,0.0777418
1324,0.0796827
1326,0.0817912
1328,0.0841714
1330,0.0867279
1332,0.0894716
1334,0.0924342
1336,0.0954915
1338,0.0987912
1340,0.10219
1342,0.105624
1344,0.109231
1346,0.112834
1348,0.116523
1350,0.120216
1352,0.1238
1354,0.127488
1356,0.131075
1358,0.134461
1360,0.137808
1362,0.140961
1364,0.144035
1366,0.14698
1368,0.149783
1370,0.152637
1372,0.155391
1374,0.158114
1376,0.160923
1378,0.163813
1380,0.167012
1382,0.170516
1384,0.17438
1386,0.178807
1388,0.183685
1390,0.189101
1392,0.195032
1394,0.201304
1396,0.208417
1398,0.215953
1400,0.223934
1402,0.232686
1404,0.241857
1406,0.25167
1408,0.26181
1410,0.271978
1412,0.282614
1414,0.29314
1416,0.303571
1418,0.313879
1420,0.323717
1422,0.33345
1424,0.342641
1426,0.351108
1428,0.359208
1430,0.366449
1432,0.373157
1434,0.379035
1436,0.384156
1438,0.388692
1440,0.392555
1442,0.395798
1444,0.398579
1446,0.400891
1448,0.402875
1450,0.404546
1452,0.405931
1454,0.407133
1456,0.408103
1458,0.408938
1460,0.409609
1462,0.410123
1464,0.410487
1466,0.410678
1468,0.410705
1470,0.410555
1472,0.410222
1474,0.409708
1476,0.409071
1478,0.408302
1480,0.40742
1482,0.406453
1484,0.405393
1486,0.404263
1488,0.403073
1490,0.401792
1492,0.400512
1494,0.399135
1496,0.397717
1498,0.396248
1500,0.39473
1502,0.393183
1504,0.391671
1506,0.39015
1508,0.388655
1510,0.387134
1512,0.38566
1514,0.384297
1516,0.382915
1518,0.381621
1520,0.380345
1522,0.379131
1524,0.378056
1526,0.377005
1528,0.376036
1530,0.375186
1532,0.374411
1534,0.373701
1536,0.373057
1538,0.372452
1540,0.371949
1542,0.371478
1544,0.371026
1546,0.370613
1548,0.370231
1550,0.369891
1552,0.369559
1554,0.369258
1556,0.368947
1558,0.368637
1560,0.36834
1562,0.368025
1564,0.367687
1566,0.367276
1568,0.366825
1570,0.366294
1572,0.365677
1574,0.364952
1576,0.364138
1578,0.363208
1580,0.362187
1582,0.361023
1584,0.359716
1586,0.358313
1588,0.356752
1590,0.355094
1592,0.353284
1594,0.351343
1596,0.34932
1598,0.347187
1600,0.34502
1602,0.342753
1604,0.340423
1606,0.338113
1608,0.335755
1610,0.333431
1612,0.33106
1614,0.328701
1616,0.326405
1618,0.324112
1620,0.321871
1622,0.31963
1624,0.317412
1626,0.315275
1628,0.313159
1630,0.311095
1632,0.309058
1634,0.307073
1636,0.30517
1638,0.303296
1640,0.301499
1642,0.299755
1644,0.298083
1646,0.296532
1648,0.295042
1650,0.293676
1652,0.292421
1654,0.291293
1656,0.290334
1658,0.289528
1660,0.288858
1662,0.288305
1664,0.287879
1666,0.287641
1668,0.287573
1670,0.287757
1672,0.288298
1674,0.289178
1676,0.29049
1678,0.292239
1680,0.294398
1682,0.297157
1684,0.300317
1686,0.303842
1688,0.307629
1690,0.311469
1692,0.315354
1694,0.319001
1696,0.322358
1698,0.325375
1700,0.327978
1702,0.330211
1704,0.331961
1706,0.333281
1708,0.334262
1710,0.33499
1712,0.335637
1714,0.336208
1716,0.336765
1718,0.337333
1720,0.337903
1722,0.33847
1724,0.338958
1726,0.339327
1728,0.339536
1730,0.339576
1732,0.339538
1734,0.339531
1736,0.339599
1738,0.339901
1740,0.340443
1742,0.341225
1744,0.34216
1746,0.343195
1748,0.344229
1750,0.345159
1752,0.345997
1754,0.346698
1756,0.347297
1758,0.347769
1760,0.348117
1762,0.34836
1764,0.348486
1766,0.348506
1768,0.348499
1770,0.348473
1772,0.348409
1774,0.348258
1776,0.347979
1778,0.347499
1780,0.346773
1782,0.345843
1784,0.344667
1786,0.343294
1788,0.341815
1790,0.34016
1792,0.338442
1794,0.336658
1796,0.334841
1798,0.333059
1800,0.331251
1802,0.329523
1804,0.327863
1806,0.326305
1808,0.32488
1810,0.323507
1812,0.322281
1814,0.321081
1816,0.319951
1818,0.318795
1820,0.317607
1822,0.316404
1824,0.315087
1826,0.313719
1828,0.312267
1830,0.310729
1832,0.309159
1834,0.307511
1836,0.305845
1838,0.30411
1840,0.302443
1842,0.300861
1844,0.299398
1846,0.298163
1848,0.297149
1850,0.296398
1852,0.295936
1854,0.295833
1856,0.296069
1858,0.296662
1860,0.297623
1862,0.298985
1864,0.300724
1866,0.302978
1868,0.305718
1870,0.308962
1872,0.312999
1874,0.317605
1876,0.322966
1878,0.32912
1880,0.336164
1882,0.344242
1884,0.353364
1886,0.363863
1888,0.375364
1890,0.388118
1892,0.401882
1894,0.41643
1896,0.431931
1898,0.447726
1900,0.463948
1902,0.479994
1904,0.495657
1906,0.510693
1908,0.524796
1910,0.538217
1912,0.550482
1914,0.561846
1916,0.572123
1918,0.581302
1920,0.589518
1922,0.596646
1924,0.602729
1926,0.607623
1928,0.6114
1930,0.613875
1932,0.615131
1934,0.615297
1936,0.614379
1938,0.612564
1940,0.609936
1942,0.606713
1944,0.602984
1946,0.59895
1948,0.594644
1950,0.590238
1952,0.585711
1954,0.581165
1956,0.576649
1958,0.572198
1960,0.567727
1962,0.563306
1964,0.55892
1966,0.554565
1968,0.550239
1970,0.545948
1972,0.541708
1974,0.537492
1976,0.533302
1978,0.529114
1980,0.524928
1982,0.520806
1984,0.516787
1986,0.512852
1988,0.509065
1990,0.505461
1992,0.502021
1994,0.498848
1996,0.495933
1998,0.49328
2000,0.490966
2002,0.489045
2004,0.487494
2006,0.486336
2008,0.48557
2010,0.485274
2012,0.485374
2014,0.485887
2016,0.48687
2018,0.488256
2020,0.490105
2022,0.492365
2024,0.495034
2026,0.498117
2028,0.501612
2030,0.505335
2032,0.509259
2034,0.51343
2036,0.51772
2038,0.52216
2040,0.526721
2042,0.531316
2044,0.536017
2046,0.540611
2048,0.545187
2050,0.549588
2052,0.55387
2054,0.557989
2056,0.56188
2058,0.565627
2060,0.569122
2062,0.572488
2064,0.575582
2066,0.578609
2068,0.581425
2070,0.584079
2072,0.586645
2074,0.589053
2076,0.591339
2078,0.593451
2080,0.59545
2082,0.597269
2084,0.598971
2086,0.600525
2088,0.60194
2090,0.60322
2092,0.60431
2094,0.605297
2096,0.606159
2098,0.606851
2100,0.607394
2102,0.607765
2104,0.608012
2106,0.608022
2108,0.607906
2110,0.607676
2112,0.607307
2114,0.606782
2116,0.606078
2118,0.605291
2120,0.604314
2122,0.603131
2124,0.601793
2126,0.600347
2128,0.598668
2130,0.596922
2132,0.595037
2134,0.593133
2136,0.591119
2138,0.589055
2140,0.587052
2142,0.584835
2144,0.582669
2146,0.58027
2148,0.577898
2150,0.575347
2152,0.572846
2154,0.570308
2156,0.567799
2158,0.565286
2160,0.562782
2162,0.560368
2164,0.557927
2166,0.555654
2168,0.553275
2170,0.550932
2172,0.548482
2174,0.546083
2176,0.543579
2178,0.541064
2180,0.538498
2182,0.535909
2184,0.533308
2186,0.530629
2188,0.528052
2190,0.525383
2192,0.522929
2194,0.520399
2196,0.518108
2198,0.515695
2200,0.513437
2202,0.51119
2204,0.509063
2206,0.507008
2208,0.505019
2210,0.503147
2212,0.50142
2214,0.499832
2216,0.498335
2218,0.497074
2220,0.495961
2222,0.495114
2224,0.494489
2226,0.494171
2228,0.494267
2230,0.494741
2232,0.495658
2234,0.497057
2236,0.499052
2238,0.501625
2240,0.504824
2242,0.508609
2244,0.512977
2246,0.517956
2248,0.523395
2250,0.529417
2252,0.535757
2254,0.542499
2256,0.549352
2258,0.556497
2260,0.563398
2262,0.570451
2264,0.57725
2266,0.584038
2268,0.590731
2270,0.597458
2272,0.604139
2274,0.61077
2276,0.617178
2278,0.623135
2280,0.628307
2282,0.632406
2284,0.63531
2286,0.636947
2288,0.637727
2290,0.637966
2292,0.638167
2294,0.638602
2296,0.639695
2298,0.641532
2300,0.644015
2302,0.646906
2304,0.649897
2306,0.65259
2308,0.654776
2310,0.656027
2312,0.656501
2314,0.656413
2316,0.655866
2318,0.655094
2320,0.654237
2322,0.65343
2324,0.65258
2326,0.651689
2328,0.650724
2330,0.649785
2332,0.649035
2334,0.648271
2336,0.647786
2338,0.647653
2340,0.647646
2342,0.647653
2344,0.647456
2346,0.646946
2348,0.645906
2350,0.644508
2352,0.642762
2354,0.641055
2356,0.639604
2358,0.638427
2360,0.637658
2362,0.637247
2364,0.637023
2366,0.636967
2368,0.636952
2370,0.636917
2372,0.636814
2374,0.636637
2376,0.636478
2378,0.636259
2380,0.636107
2382,0.63599
2384,0.636078
2386,0.636372
2388,0.636794
2390,0.637469
2392,0.63845
2394,0.63976
2396,0.641354
2398,0.643407
2400,0.645712
2402,0.648416
2404,0.651242
2406,0.654415
2408,0.657753
2410,0.661337
2412,0.664902
2414,0.668643
2416,0.672257
2418,0.675939
2420,0.679656
2422,0.683442
2424,0.687248
2426,0.691245
2428,0.695082
2430,0.699159
2432,0.703234
2434,0.707357
2436,0.711472
2438,0.715785
2440,0.720044
2442,0.724193
2444,0.728329
2446,0.732449
2448,0.736644
2450,0.740504
2452,0.744494
2454,0.748254
2456,0.75211
2458,0.75572
2460,0.759403
2462,0.762969
2464,0.766374
2466,0.76955
2468,0.772696
2470,0.775905
2472,0.778864
2474,0.781516
2476,0.78401
2478,0.785988
2480,0.787705
2482,0.78905
2484,0.790268
2486,0.791199
2488,0.791795
2490,0.792042
2492,0.792248
2494,0.792119
2496,0.79174
2498,0.79116
