wavenumber,intensity
1100,-0.0141888
1102,-0.0142512
1104,-0.0142884
1106,-0.0142643
1108,-0.0142136
1110,-0.0141063
1112,-0.0139453
1114,-0.0137555
1116,-0.0134542
1118,-0.0130782
1120,-0.0125547
1122,-0.0119135
1124,-0.011026
1126,-0.0099253
1128,-0.0085475
1130,-0.006909
1132,-0.0049121
1134,-0.0026449
1136,-9.73e-05
1138,0.0026597
1140,0.0057168
1142,0.0089248
1144,0.0122616
1146,0.0157669
1148,0.0193714
1150,0.022999
1152,0.02665
1154,0.030255
1156,0.0338382
1158,0.0372835
1160,0.040555
1162,0.0437194
1164,0.0466671
1166,0.0493759
1168,0.0519614
1170,0.0544244
1172,0.0568416
1174,0.0592159
1176,0.0615582
1178,0.0639438
1180,0.0663514
1182,0.0686739
1184,0.0709875
1186,0.0732253
1188,0.0753103
1190,0.0771939
1192,0.0788519
1194,0.0802845
1196,0.0814577
1198,0.082333
1200,0.0829706
1202,0.0833236
1204,0.0834079
1206,0.0832002
1208,0.0827038
1210,0.081901
1212,0.0807972
1214,0.0794457
1216,0.0778228
1218,0.0760335
1220,0.0741436
1222,0.0721843
1224,0.070236
1226,0.0683068
1228,0.0664515
1230,0.0647167
1232,0.0630624
1234,0.0615295
1236,0.0601647
1238,0.0589028
1240,0.0578028
1242,0.0568226
1244,0.0559608
1246,0.0552195
1248,0.0545761
1250,0.0540054
1252,0.0535231
1254,0.0530888
1256,0.0527191
1258,0.0523688
1260,0.0520507
1262,0.0517534
1264,0.0514558
1266,0.051169
1268,0.0508709
1270,0.0505559
1272,0.050209
1274,0.0498308
1276,0.0494341
1278,0.049011
1280,0.0485545
1282,0.0480934
1284,0.0476356
1286,0.0471784
1288,0.046757
1290,0.0463703
1292,0.0460396
1294,0.0457813
1296,0.0455892
1298,0.0454819
1300,0.0454484
1302,0.0455185
1304,0.0456884
1306,0.045967
1308,0.0463746
1310,0.0468899
1312,0.0475594
1314,0.0483606
1316,0.0493074
1318,0.0504265
1320,0.0516631
1322,0.0531093
1324,0.0547296
1326,0.0564745
1328,0.0584573
1330,0.0605719
1332,0.0628584
1334,0.0653092
1336,0.067845
1338,0.0705799
1340,0.0733965
1342,0.0762551
1344,0.0792612
1346,0.0822513
1348,0.0853118
1350,0.0883734
1352,0.0913516
1354,0.0944305
1356,0.0974147
1358,0.100221
1360,0.10302
1362,0.105634
1364,0.108194
1366,0.110638
1368,0.112953
1370,0.115305
1372,0.117587
1374,0.119857
1376,0.122209
1378,0.124636
1380,0.12733
1382,0.130288
1384,0.133546
1386,0.137281
1388,0.14142
1390,0.146019
1392,0.151106
1394,0.156498
1396,0.16265
1398,0.169166
1400,0.176145
1402,0.18374
1404,0.191703
1406,0.200225
1408,0.209017
1410,0.21782
1412,0.227139
1414,0.236371
1416,0.245524
1418,0.254602
1420,0.26329
1422,0.271903
1424,0.28007
1426,0.287566
1428,0.294735
1430,0.301182
1432,0.30715
1434,0.312405
1436,0.317
1438,0.321082
1440,0.324564
1442,0.327513
1444,0.330052
1446,0.332173
1448,0.333989
1450,0.335525
1452,0.336783
1454,0.337874
1456,0.338752
1458,0.339502
1460,0.340103
1462,0.340561
1464,0.340871
1466,0.34104
1468,0.341042
1470,0.340886
1472,0.340573
1474,0.340108
1476,0.339499
1478,0.338783
1480,0.337958
1482,0.337037
1484,0.336045
1486,0.334981
1488,0.333861
1490,0.332704
1492,0.331459
1494,0.330144
1496,0.328805
1498,0.327456
1500,0.326007
1502,0.3246
1504,0.323167
1506,0.321758
1508,0.320372
1510,0.318985
1512,0.317609
1514,0.316333
1516,0.315073
1518,0.313868
1520,0.312734
1522,0.311621
1524,0.310623
1526,0.309669
1528,0.308794
1530,0.308014
1532,0.307279
1534,0.306639
1536,0.306053
1538,0.305509
1540,0.305057
1542,0.304605
1544,0.304186
1546,0.303821
1548,0.303458
1550,0.303142
1552,0.302823
1554,0.302513
1556,0.302227
1558,0.301947
1560,0.301672
1562,0.301366
1564,0.30103
1566,0.300663
1568,0.30023
1570,0.299733
1572,0.299166
1574,0.29851
1576,0.29778
1578,0.296923
1580,0.295995
1582,0.294939
1584,0.293757
1586,0.292495
1588,0.291099
1590,0.289614
1592,0.287998
1594,0.286268
1596,0.284461
1598,0.282558
1600,0.280625
1602,0.278599
1604,0.276518
1606,0.274459
1608,0.272364
1610,0.270291
1612,0.268185
1614,0.266086
1616,0.264042
1618,0.261994
1620,0.259988
1622,0.257995
1624,0.256022
1626,0.25413
1628,0.25225
1630,0.250435
1632,0.248625
1634,0.246861
1636,0.245179
1638,0.243521
1640,0.241931
1642,0.240382
1644,0.238899
1646,0.237529
1648,0.236213
1650,0.235016
1652,0.2339
1654,0.2329
1656,0.232052
1658,0.231322
1660,0.230708
1662,0.2302
1664,0.229799
1666,0.229553
1668,0.229455
1670,0.229588
1672,0.229994
1674,0.230702
1676,0.231759
1678,0.233204
1680,0.235007
1682,0.237287
1684,0.239918
1686,0.242852
1688,0.24602
1690,0.249221
1692,0.252477
1694,0.255539
1696,0.258339
1698,0.260826
1700,0.262944
1702,0.264693
1704,0.266031
1706,0.267011
1708,0.267699
1710,0.268202
1712,0.268634
1714,0.269034
1716,0.269437
1718,0.269862
1720,0.270293
1722,0.270718
1724,0.271104
1726,0.271443
1728,0.2717
1730,0.271862
1732,0.271997
1734,0.272163
1736,0.272438
1738,0.272876
1740,0.273487
1742,0.274265
1744,0.275136
1746,0.27605
1748,0.276952
1750,0.277735
1752,0.278419
1754,0.278987
1756,0.279475
1758,0.279872
1760,0.280183
1762,0.280417
1764,0.280615
1766,0.280754
1768,0.280853
1770,0.280946
1772,0.281014
1774,0.280984
1776,0.280818
1778,0.280451
1780,0.279865
1782,0.279083
1784,0.278085
1786,0.276922
1788,0.275649
1790,0.274205
1792,0.272705
1794,0.271158
1796,0.269583
1798,0.268023
1800,0.266449
1802,0.264958
1804,0.26351
1806,0.262168
1808,0.260922
1810,0.259723
1812,0.258649
1814,0.257622
1816,0.256646
1818,0.255662
1820,0.254649
1822,0.253605
1824,0.252469
1826,0.251286
1828,0.250023
1830,0.24869
1832,0.247329
1834,0.245885
1836,0.244441
1838,0.242936
1840,0.241491
1842,0.240106
1844,0.238856
1846,0.237781
1848,0.236917
1850,0.236288
1852,0.23591
1854,0.23585
1856,0.236079
1858,0.236627
1860,0.237492
1862,0.238737
1864,0.240326
1866,0.242367
1868,0.24488
1870,0.247832
1872,0.251442
1874,0.255553
1876,0.260336
1878,0.265838
1880,0.272137
1882,0.279423
1884,0.287639
1886,0.297122
1888,0.307535
1890,0.319132
1892,0.331689
1894,0.344969
1896,0.359169
1898,0.37374
1900,0.388689
1902,0.403537
1904,0.418041
1906,0.432045
1908,0.445197
1910,0.457703
1912,0.469185
1914,0.479861
1916,0.489538
1918,0.498234
1920,0.506019
1922,0.512769
1924,0.518541
1926,0.523184
1928,0.526761
1930,0.529094
1932,0.530322
1934,0.530466
1936,0.529583
1938,0.527753
1940,0.525198
1942,0.522065
1944,0.518486
1946,0.514605
1948,0.510444
1950,0.506191
1952,0.501835
1954,0.497451
1956,0.493059
1958,0.488741
1960,0.484444
1962,0.480206
1964,0.476013
1966,0.471844
1968,0.467712
1970,0.463603
1972,0.459567
1974,0.45554
1976,0.451494
1978,0.447528
1980,0.443568
1982,0.43969
1984,0.435866
1986,0.432154
1988,0.428597
1990,0.425191
1992,0.421957
1994,0.41893
1996,0.416157
1998,0.413668
2000,0.411466
2002,0.409608
2004,0.408132
2006,0.407017
2008,0.406245
2010,0.405865
2012,0.405885
2014,0.406314
2016,0.40714
2018,0.408375
2020,0.409981
2022,0.41199
2024,0.414365
2026,0.417121
2028,0.420288
2030,0.423661
2032,0.427222
2034,0.430997
2036,0.434857
2038,0.438853
2040,0.44296
2042,0.447105
2044,0.451323
2046,0.455496
2048,0.459673
2050,0.463698
2052,0.467658
2054,0.471438
2056,0.475084
2058,0.478605
2060,0.481909
2062,0.485056
2064,0.488042
2066,0.490914
2068,0.493592
2070,0.496142
2072,0.498547
2074,0.500834
2076,0.503042
2078,0.50508
2080,0.507052
2082,0.508857
2084,0.51055
2086,0.512046
2088,0.513449
2090,0.514701
2092,0.515763
2094,0.516723
2096,0.517529
2098,0.518198
2100,0.518685
2102,0.519076
2104,0.519248
2106,0.519272
2108,0.519155
2110,0.51892
2112,0.518509
2114,0.517952
2116,0.517283
2118,0.516447
2120,0.515419
2122,0.514323
2124,0.51298
2126,0.51154
2128,0.509943
2130,0.508199
2132,0.506345
2134,0.504399
2136,0.502448
2138,0.500422
2140,0.498431
2142,0.496302
2144,0.494163
2146,0.491852
2148,0.489556
2150,0.48714
2152,0.48477
2154,0.482349
2156,0.47991
2158,0.477532
2160,0.47514
2162,0.472882
2164,0.470545
2166,0.46832
2168,0.466
2170,0.463823
2172,0.461548
2174,0.459288
2176,0.456913
2178,0.45453
2180,0.452167
2182,0.449708
2184,0.447312
2186,0.444889
2188,0.4425
2190,0.440115
2192,0.43787
2194,0.435541
2196,0.433406
2198,0.431256
2200,0.429221
2202,0.427198
2204,0.425276
2206,0.423405
2208,0.421651
2210,0.419939
2212,0.418367
2214,0.416877
2216,0.415536
2218,0.414341
2220,0.41327
2222,0.412426
2224,0.411854
2226,0.411552
2228,0.41158
2230,0.411985
2232,0.41282
2234,0.414049
2236,0.415858
2238,0.418133
2240,0.420977
2242,0.424339
2244,0.428245
2246,0.432669
2248,0.437569
2250,0.442988
2252,0.448625
2254,0.45469
2256,0.460919
2258,0.467389
2260,0.473627
2262,0.480032
2264,0.486234
2266,0.492408
2268,0.498531
2270,0.504722
2272,0.51079
2274,0.51699
2276,0.522906
2278,0.528461
2280,0.533222
2282,0.536997
2284,0.539518
2286,0.540861
2288,0.541231
2290,0.541074
2292,0.540832
2294,0.540841
2296,0.541405
2298,0.542621
2300,0.544498
2302,0.546786
2304,0.549431
2306,0.551876
2308,0.554005
2310,0.555463
2312,0.556414
2314,0.55683
2316,0.556859
2318,0.556608
2320,0.55623
2322,0.555678
2324,0.554995
2326,0.55421
2328,0.553336
2330,0.552352
2332,0.551476
2334,0.550664
2336,0.549964
2338,0.549516
2340,0.549099
2342,0.548758
2344,0.548286
2346,0.547641
2348,0.546681
2350,0.545335
2352,0.543941
2354,0.54263
2356,0.541474
2358,0.540672
2360,0.54014
2362,0.53981
2364,0.539686
2366,0.53972
2368,0.539751
2370,0.539701
2372,0.53963
2374,0.53951
2376,0.539362
2378,0.53921
2380,0.539023
2382,0.539002
2384,0.539105
2386,0.539359
2388,0.539838
2390,0.540571
2392,0.541537
2394,0.542819
2396,0.544399
2398,0.546346
2400,0.548626
2402,0.551251
2404,0.554083
2406,0.55715
2408,0.560361
2410,0.563766
2412,0.567206
2414,0.570819
2416,0.574319
2418,0.578083
2420,0.581735
2422,0.585581
2424,0.589299
2426,0.593183
2428,0.59699
2430,0.600954
2432,0.604794
2434,0.60879
2436,0.612911
2438,0.617059
2440,0.621274
2442,0.625424
2444,0.629597
2446,0.633596
2448,0.63753
2450,0.641533
2452,0.645436
2454,0.649082
2456,0.652804
2458,0.65632
2460,0.660029
2462,0.663612
2464,0.667154
2466,0.670311
2468,0.673571
2470,0.676616
2472,0.679486
2474,0.682039
2476,0.684483
2478,0.686473
2480,0.688264
2482,0.689715
2484,0.690899
2486,0.691877
2488,0.692659
2490,0.693017
2492,0.693037
2494,0.692842
2496,0.692377
2498,0.691869
