wavenumber,intensity
1100,-0.011369
1102,-0.011444
1104,-0.0114974
1106,-0.0114884
1108,-0.0114493
1110,-0.0113764
1112,-0.0112652
1114,-0.0110849
1116,-0.0108006
1118,-0.010433
1120,-0.0099315
1122,-0.0092884
1124,-0.0084262
1126,-0.00736
1128,-0.0059975
1130,-0.0043818
1132,-0.0024352
1134,-0.0002259
1136,0.0022588
1138,0.0049408
1140,0.0078964
1142,0.0110064
1144,0.014223
1146,0.0176153
1148,0.0210859
1150,0.0245773
1152,0.028087
1154,0.0315747
1156,0.0350633
1158,0.0384267
1160,0.0416223
1162,0.0447001
1164,0.0475835
1166,0.0502199
1168,0.0527583
1170,0.0551655
1172,0.0575263
1174,0.0598562
1176,0.0621567
1178,0.0645203
1180,0.0668912
1182,0.0692014
1184,0.0714938
1186,0.0736945
1188,0.0757478
1190,0.0775898
1192,0.0792051
1194,0.080583
1196,0.081713
1198,0.0825466
1200,0.0831469
1202,0.0834803
1204,0.0835532
1206,0.0833462
1208,0.0828533
1210,0.0820492
1212,0.0809449
1214,0.0795992
1216,0.0779879
1218,0.0761944
1220,0.0743
1222,0.0723306
1224,0.0703692
1226,0.0684281
1228,0.0665524
1230,0.0648133
1232,0.0631497
1234,0.0616291
1236,0.060254
1238,0.0589993
1240,0.057892
1242,0.0568983
1244,0.056041
1246,0.0552851
1248,0.0546249
1250,0.0540415
1252,0.0535562
1254,0.0531107
1256,0.052727
1258,0.0523748
1260,0.0520523
1262,0.0517675
1264,0.0514933
1266,0.0512106
1268,0.0509082
1270,0.0505991
1272,0.050259
1274,0.0498904
1276,0.0494895
1278,0.0490732
1280,0.0486103
1282,0.0481422
1284,0.0476707
1286,0.0471932
1288,0.0467474
1290,0.0463366
1292,0.0459939
1294,0.0457076
1296,0.0454825
1298,0.0453379
1300,0.0452821
1302,0.045312
1304,0.0454365
1306,0.0456711
1308,0.0460261
1310,0.0464803
1312,0.0470914
1314,0.0478176
1316,0.0486755
1318,0.0497056
1320,0.0508684
1322,0.0522246
1324,0.0537452
1326,0.0553919
1328,0.0572624
1330,0.0592721
1332,0.0614401
1334,0.0637909
1336,0.0662173
1338,0.0688604
1340,0.0715851
1342,0.0743552
1344,0.0772727
1346,0.080215
1348,0.0831875
1350,0.0861973
1352,0.0891201
1354,0.0921202
1356,0.0950218
1358,0.0977657
1360,0.100479
1362,0.103006
1364,0.105488
1366,0.107869
1368,0.110131
1370,0.112429
1372,0.114643
1374,0.116825
1376,0.119058
1378,0.121342
1380,0.123877
1382,0.126663
1384,0.129711
1386,0.133233
1388,0.137108
1390,0.14139
1392,0.146125
1394,0.151144
1396,0.15687
1398,0.162958
1400,0.169514
1402,0.176691
1404,0.184269
1406,0.192379
1408,0.200821
1410,0.209319
1412,0.218222
1414,0.227131
1416,0.236008
1418,0.244833
1420,0.253314
1422,0.261724
1424,0.269676
1426,0.277046
1428,0.284104
1430,0.290443
1432,0.296347
1434,0.301503
1436,0.305976
1438,0.309954
1440,0.313302
1442,0.3161
1444,0.318491
1446,0.320474
1448,0.322176
1450,0.323616
1452,0.324814
1454,0.325859
1456,0.3267
1458,0.327425
1460,0.327996
1462,0.328451
1464,0.328766
1466,0.328938
1468,0.328981
1470,0.328828
1472,0.328555
1474,0.328125
1476,0.327579
1478,0.326932
1480,0.326199
1482,0.325382
1484,0.324522
1486,0.323574
1488,0.322588
1490,0.321532
1492,0.32045
1494,0.319258
1496,0.318024
1498,0.316795
1500,0.315456
1502,0.31413
1504,0.312788
1506,0.311496
1508,0.310182
1510,0.308851
1512,0.307545
1514,0.306302
1516,0.305071
1518,0.303906
1520,0.302799
1522,0.301743
1524,0.300776
1526,0.299891
1528,0.299028
1530,0.298237
1532,0.297532
1534,0.296919
1536,0.296353
1538,0.29583
1540,0.29534
1542,0.294919
1544,0.294528
1546,0.294167
1548,0.293797
1550,0.293495
1552,0.293203
1554,0.292938
1556,0.292682
1558,0.292427
1560,0.29218
1562,0.291898
1564,0.291616
1566,0.291277
1568,0.290895
1570,0.290436
1572,0.289895
1574,0.289282
1576,0.288579
1578,0.287755
1580,0.286863
1582,0.285841
1584,0.284706
1586,0.283471
1588,0.282111
1590,0.280658
1592,0.279066
1594,0.277362
1596,0.275591
1598,0.273727
1600,0.27183
1602,0.269841
1604,0.267814
1606,0.265782
1608,0.263747
1610,0.26174
1612,0.259666
1614,0.257615
1616,0.255634
1618,0.253645
1620,0.251713
1622,0.249786
1624,0.247879
1626,0.246048
1628,0.244231
1630,0.242473
1632,0.240729
1634,0.239019
1636,0.237395
1638,0.235797
1640,0.234273
1642,0.232793
1644,0.231378
1646,0.230062
1648,0.2288
1650,0.227663
1652,0.22661
1654,0.225683
1656,0.22491
1658,0.224249
1660,0.22371
1662,0.223274
1664,0.222952
1666,0.222784
1668,0.222754
1670,0.222942
1672,0.223441
1674,0.22424
1676,0.225405
1678,0.226932
1680,0.228811
1682,0.231169
1684,0.233882
1686,0.236893
1688,0.240127
1690,0.243366
1692,0.246644
1694,0.249721
1696,0.252541
1698,0.255088
1700,0.257256
1702,0.25909
1704,0.260518
1706,0.261578
1708,0.262349
1710,0.262925
1712,0.263407
1714,0.263853
1716,0.264287
1718,0.264742
1720,0.265171
1722,0.265626
1724,0.266008
1726,0.266304
1728,0.266463
1730,0.266525
1732,0.266517
1734,0.266524
1736,0.266635
1738,0.266907
1740,0.267375
1742,0.268008
1744,0.268778
1746,0.269616
1748,0.270433
1750,0.27117
1752,0.271821
1754,0.272337
1756,0.272774
1758,0.27312
1760,0.273368
1762,0.273529
1764,0.273614
1766,0.273633
1768,0.273623
1770,0.273589
1772,0.273512
1774,0.273376
1776,0.273121
1778,0.272691
1780,0.272073
1782,0.271259
1784,0.270271
1786,0.269111
1788,0.267857
1790,0.266426
1792,0.264962
1794,0.263432
1796,0.261899
1798,0.260381
1800,0.258844
1802,0.257371
1804,0.25596
1806,0.25462
1808,0.253396
1810,0.252217
1812,0.251156
1814,0.250145
1816,0.249167
1818,0.248194
1820,0.24717
1822,0.246157
1824,0.245011
1826,0.243828
1828,0.242571
1830,0.241256
1832,0.239908
1834,0.238471
1836,0.237016
1838,0.235519
1840,0.234077
1842,0.232691
1844,0.231403
1846,0.230322
1848,0.229425
1850,0.228759
1852,0.228341
1854,0.228203
1856,0.228343
1858,0.228798
1860,0.229561
1862,0.230662
1864,0.232056
1866,0.233861
1868,0.23607
1870,0.238684
1872,0.241942
1874,0.245689
1876,0.250096
1878,0.255133
1880,0.260944
1882,0.267672
1884,0.275299
1886,0.284135
1888,0.293867
1890,0.304727
1892,0.316504
1894,0.329024
1896,0.342392
1898,0.356141
1900,0.370331
1902,0.38445
1904,0.398218
1906,0.411542
1908,0.424077
1910,0.435984
1912,0.446935
1914,0.457118
1916,0.466334
1918,0.474587
1920,0.481985
1922,0.488425
1924,0.493848
1926,0.498218
1928,0.501566
1930,0.503741
1932,0.504803
1934,0.504823
1936,0.503893
1938,0.502081
1940,0.499595
1942,0.496511
1944,0.493027
1946,0.489261
1948,0.485309
1950,0.481234
1952,0.477075
1954,0.472927
1956,0.468761
1958,0.464662
1960,0.460672
1962,0.456703
1964,0.452801
1966,0.448889
1968,0.445044
1970,0.44124
1972,0.437465
1974,0.433706
1976,0.429994
1978,0.426289
1980,0.42261
1982,0.418976
1984,0.415418
1986,0.412015
1988,0.408738
1990,0.405569
1992,0.40258
1994,0.399807
1996,0.39728
1998,0.395048
2000,0.393106
2002,0.391499
2004,0.390273
2006,0.389393
2008,0.388883
2010,0.38877
2012,0.389036
2014,0.389652
2016,0.390668
2018,0.392105
2020,0.393936
2022,0.39612
2024,0.398692
2026,0.401618
2028,0.40495
2030,0.408489
2032,0.412185
2034,0.416121
2036,0.420182
2038,0.424376
2040,0.42865
2042,0.432979
2044,0.437313
2046,0.441592
2048,0.44587
2050,0.449997
2052,0.454034
2054,0.457856
2056,0.461519
2058,0.465001
2060,0.468274
2062,0.471388
2064,0.47433
2066,0.477153
2068,0.479756
2070,0.48231
2072,0.484675
2074,0.486895
2076,0.489008
2078,0.490956
2080,0.492839
2082,0.494518
2084,0.496126
2086,0.497559
2088,0.498892
2090,0.500044
2092,0.501109
2094,0.502027
2096,0.502824
2098,0.503485
2100,0.503988
2102,0.504303
2104,0.50449
2106,0.504519
2108,0.504393
2110,0.504163
2112,0.503785
2114,0.503305
2116,0.502604
2118,0.501816
2120,0.500867
2122,0.499813
2124,0.498542
2126,0.497172
2128,0.495621
2130,0.494018
2132,0.492286
2134,0.4905
2136,0.488679
2138,0.486845
2140,0.484998
2142,0.483015
2144,0.480981
2146,0.478833
2148,0.476629
2150,0.474369
2152,0.472127
2154,0.469823
2156,0.467546
2158,0.465262
2160,0.46298
2162,0.460822
2164,0.458624
2166,0.456495
2168,0.454346
2170,0.452222
2172,0.449989
2174,0.447811
2176,0.445598
2178,0.44331
2180,0.440998
2182,0.438657
2184,0.436329
2186,0.433934
2188,0.43156
2190,0.429228
2192,0.427011
2194,0.424743
2196,0.422589
2198,0.420462
2200,0.418492
2202,0.416461
2204,0.414596
2206,0.412711
2208,0.410931
2210,0.409274
2212,0.407707
2214,0.406291
2216,0.404908
2218,0.403751
2220,0.402729
2222,0.401887
2224,0.4013
2226,0.401057
2228,0.401106
2230,0.401548
2232,0.402383
2234,0.403651
2236,0.405391
2238,0.40767
2240,0.410477
2242,0.413847
2244,0.417712
2246,0.42213
2248,0.426989
2250,0.432343
2252,0.437976
2254,0.444001
2256,0.45002
2258,0.456341
2260,0.46246
2262,0.468708
2264,0.474835
2266,0.480924
2268,0.486866
2270,0.492931
2272,0.49889
2274,0.504856
2276,0.510607
2278,0.516
2280,0.520633
2282,0.524276
2284,0.526752
2286,0.528139
2288,0.528692
2290,0.528726
2292,0.528638
2294,0.528874
2296,0.529578
2298,0.530877
2300,0.532813
2302,0.535184
2304,0.537755
2306,0.540048
2308,0.541993
2310,0.543249
2312,0.543915
2314,0.544168
2316,0.543922
2318,0.543495
2320,0.542976
2322,0.542318
2324,0.541548
2326,0.540698
2328,0.539756
2330,0.538874
2332,0.538007
2334,0.537213
2336,0.536676
2338,0.536303
2340,0.536084
2342,0.535837
2344,0.535382
2346,0.53472
2348,0.533679
2350,0.532367
2352,0.530872
2354,0.529424
2356,0.52819
2358,0.527253
2360,0.526587
2362,0.526185
2364,0.525898
2366,0.525677
2368,0.525534
2370,0.525459
2372,0.525297
2374,0.525106
2376,0.524888
2378,0.524585
2380,0.524421
2382,0.524303
2384,0.524281
2386,0.524426
2388,0.524735
2390,0.525371
2392,0.526284
2394,0.527444
2396,0.528901
2398,0.530699
2400,0.532874
2402,0.535232
2404,0.537931
2406,0.540755
2408,0.543832
2410,0.547034
2412,0.550363
2414,0.553767
2416,0.557228
2418,0.560742
2420,0.564294
2422,0.567908
2424,0.571405
2426,0.575052
2428,0.578639
2430,0.582424
2432,0.586231
2434,0.590051
2436,0.594034
2438,0.598099
2440,0.602115
2442,0.606114
2444,0.610152
2446,0.614096
2448,0.61794
2450,0.621604
2452,0.625303
2454,0.628909
2456,0.632514
2458,0.63601
2460,0.639429
2462,0.642755
2464,0.64624
2466,0.649377
2468,0.652556
2470,0.655432
2472,0.658283
2474,0.660739
2476,0.663033
2478,0.665062
2480,0.666799
2482,0.668177
2484,0.669394
2486,0.670172
2488,0.670645
2490,0.671094
2492,0.671231
2494,0.670998
2496,0.670739
2498,0.670143
