wavenumber,intensity
1100,-0.0037009
1102,-0.0038175
1104,-0.0038672
1106,-0.0038641
1108,-0.0038232
1110,-0.0037099
1112,-0.0035506
1114,-0.003304
1116,-0.0029749
1118,-0.0025292
1120,-0.0019444
1122,-0.0011961
1124,-0.0001864
1126,0.001067
1128,0.002648
1130,0.0045202
1132,0.0067885
1134,0.009357
1136,0.0122336
1138,0.0153384
1140,0.0187694
1142,0.0223754
1144,0.0261019
1146,0.0300442
1148,0.0341031
1150,0.0381937
1152,0.0423023
1154,0.0463865
1156,0.0504665
1158,0.0543971
1160,0.0581431
1162,0.0617544
1164,0.0651355
1166,0.0682054
1168,0.0711277
1170,0.0738833
1172,0.0765725
1174,0.0792078
1176,0.0818194
1178,0.0845073
1180,0.0872084
1182,0.0898391
1184,0.0924604
1186,0.0949706
1188,0.0973053
1190,0.0994182
1192,0.101269
1194,0.102853
1196,0.104169
1198,0.105151
1200,0.105876
1202,0.106304
1204,0.106431
1206,0.106245
1208,0.105737
1210,0.104856
1212,0.103625
1214,0.102109
1216,0.100256
1218,0.0981853
1220,0.095982
1222,0.0936779
1224,0.0913755
1226,0.089095
1228,0.086892
1230,0.0848406
1232,0.0828729
1234,0.0810674
1236,0.0794407
1238,0.0779469
1240,0.0766312
1242,0.0754327
1244,0.0743888
1246,0.0734741
1248,0.0726663
1250,0.0719506
1252,0.07135
1254,0.0707957
1256,0.0703179
1258,0.069875
1260,0.0694749
1262,0.069112
1264,0.0687588
1266,0.0684003
1268,0.0680398
1270,0.0676559
1272,0.0672471
1274,0.0667989
1276,0.0663161
1278,0.0658059
1280,0.0652562
1282,0.0647002
1284,0.0641416
1286,0.063583
1288,0.0630625
1290,0.0625767
1292,0.0621526
1294,0.06181
1296,0.0615489
1298,0.0613766
1300,0.0613084
1302,0.0613445
1304,0.0614813
1306,0.0617523
1308,0.0621572
1310,0.0626787
1312,0.0633849
1314,0.0642295
1316,0.0652221
1318,0.0664125
1320,0.0677555
1322,0.0693187
1324,0.0710859
1326,0.0729931
1328,0.0751685
1330,0.0775133
1332,0.0800491
1334,0.0827807
1336,0.0855984
1338,0.0886679
1340,0.0918384
1342,0.0950662
1344,0.0984708
1346,0.101886
1348,0.105343
1350,0.108828
1352,0.112212
1354,0.115693
1356,0.119044
1358,0.122229
1360,0.125367
1362,0.128308
1364,0.131188
1366,0.133925
1368,0.136536
1370,0.139167
1372,0.141693
1374,0.144183
1376,0.146735
1378,0.149342
1380,0.152228
1382,0.155413
1384,0.158901
1386,0.162908
1388,0.167298
1390,0.172124
1392,0.177418
1394,0.183016
1396,0.189381
1398,0.196136
1400,0.203396
1402,0.211294
1404,0.219526
1406,0.228379
1408,0.237582
1410,0.246834
1412,0.256522
1414,0.266079
1416,0.275582
1418,0.284974
1420,0.293917
1422,0.302764
1424,0.311098
1426,0.318769
1428,0.326066
1430,0.332581
1432,0.338611
1434,0.343887
1436,0.348493
1438,0.35258
1440,0.356072
1442,0.359025
1444,0.361556
1446,0.363672
1448,0.365481
1450,0.366999
1452,0.368249
1454,0.369337
1456,0.370225
1458,0.370963
1460,0.371556
1462,0.371991
1464,0.3723
1466,0.372432
1468,0.372436
1470,0.372238
1472,0.371923
1474,0.371424
1476,0.370821
1478,0.370091
1480,0.369263
1482,0.368371
1484,0.367414
1486,0.366395
1488,0.365355
1490,0.364229
1492,0.363088
1494,0.361843
1496,0.36059
1498,0.359291
1500,0.357881
1502,0.356504
1504,0.355058
1506,0.353662
1508,0.352248
1510,0.350818
1512,0.349407
1514,0.348055
1516,0.346707
1518,0.345469
1520,0.344298
1522,0.343159
1524,0.342142
1526,0.341195
1528,0.340278
1530,0.339449
1532,0.338742
1534,0.338092
1536,0.337498
1538,0.336967
1540,0.336487
1542,0.336071
1544,0.335682
1546,0.335329
1548,0.334973
1550,0.334667
1552,0.334387
1554,0.334118
1556,0.333842
1558,0.333571
1560,0.333298
1562,0.332993
1564,0.332684
1566,0.332321
1568,0.331918
1570,0.331439
1572,0.330883
1574,0.330239
1576,0.329516
1578,0.328679
1580,0.327757
1582,0.326713
1584,0.325547
1586,0.324292
1588,0.322891
1590,0.321424
1592,0.319805
1594,0.31807
1596,0.316262
1598,0.31437
1600,0.312438
1602,0.310418
1604,0.308352
1606,0.306295
1608,0.304208
1610,0.302135
1612,0.300048
1614,0.297948
1616,0.295922
1618,0.293888
1620,0.291903
1622,0.289937
1624,0.287979
1626,0.286094
1628,0.284227
1630,0.282416
1632,0.280631
1634,0.278883
1636,0.277231
1638,0.275592
1640,0.274017
1642,0.272515
1644,0.271067
1646,0.269743
1648,0.268489
1650,0.267369
1652,0.26634
1654,0.265454
1656,0.264754
1658,0.264175
1660,0.263734
1662,0.263402
1664,0.263187
1666,0.263098
1668,0.263172
1670,0.263442
1672,0.264036
1674,0.264931
1676,0.266176
1678,0.267799
1680,0.269765
1682,0.272205
1684,0.274986
1686,0.278047
1688,0.281355
1690,0.284659
1692,0.288031
1694,0.291191
1696,0.29411
1698,0.296739
1700,0.298976
1702,0.300875
1704,0.302358
1706,0.303481
1708,0.304325
1710,0.304986
1712,0.305577
1714,0.306138
1716,0.30667
1718,0.307207
1720,0.30771
1722,0.308211
1724,0.308613
1726,0.308924
1728,0.309098
1730,0.30916
1732,0.309137
1734,0.309157
1736,0.30928
1738,0.309551
1740,0.310006
1742,0.310644
1744,0.311393
1746,0.312214
1748,0.313029
1750,0.313747
1752,0.314387
1754,0.314917
1756,0.315401
1758,0.315767
1760,0.316059
1762,0.316257
1764,0.316378
1766,0.316449
1768,0.316472
1770,0.316469
1772,0.316413
1774,0.316311
1776,0.316066
1778,0.315651
1780,0.315057
1782,0.314288
1784,0.313329
1786,0.312221
1788,0.310998
1790,0.309609
1792,0.308174
1794,0.306665
1796,0.305138
1798,0.303625
1800,0.302089
1802,0.300609
1804,0.299178
1806,0.297835
1808,0.296586
1810,0.295369
1812,0.294263
1814,0.293199
1816,0.292177
1818,0.291134
1820,0.290058
1822,0.288991
1824,0.287802
1826,0.286579
1828,0.285288
1830,0.283923
1832,0.282512
1834,0.281018
1836,0.279505
1838,0.277965
1840,0.276459
1842,0.275049
1844,0.273729
1846,0.272609
1848,0.271686
1850,0.270991
1852,0.270548
1854,0.270408
1856,0.270558
1858,0.271031
1860,0.271821
1862,0.272961
1864,0.274411
1866,0.276274
1868,0.278564
1870,0.281278
1872,0.28467
1874,0.288577
1876,0.293159
1878,0.298427
1880,0.304445
1882,0.311403
1884,0.319276
1886,0.328359
1888,0.338354
1890,0.349468
1892,0.361487
1894,0.374211
1896,0.387791
1898,0.401698
1900,0.416006
1902,0.43021
1904,0.444023
1906,0.457297
1908,0.469822
1910,0.481663
1912,0.49254
1914,0.502553
1916,0.511561
1918,0.519637
1920,0.526833
1922,0.533037
1924,0.538282
1926,0.542465
1928,0.545656
1930,0.547664
1932,0.548597
1934,0.548583
1936,0.547583
1938,0.545698
1940,0.54318
1942,0.540129
1944,0.536661
1946,0.532884
1948,0.528903
1950,0.524819
1952,0.52063
1954,0.5165
1956,0.512358
1958,0.508255
1960,0.504222
1962,0.500249
1964,0.496316
1966,0.492451
1968,0.488621
1970,0.484812
1972,0.481055
1974,0.477312
1976,0.473604
1978,0.469892
1980,0.466212
1982,0.462614
1984,0.459095
1986,0.4557
1988,0.452446
1990,0.449342
1992,0.446386
1994,0.443655
1996,0.441171
1998,0.438968
2000,0.437045
2002,0.435488
2004,0.434258
2006,0.433375
2008,0.432862
2010,0.432771
2012,0.433095
2014,0.433796
2016,0.434919
2018,0.436458
2020,0.438359
2022,0.440607
2024,0.443239
2026,0.44622
2028,0.449551
2030,0.453129
2032,0.456815
2034,0.460756
2036,0.464792
2038,0.468914
2040,0.473148
2042,0.477412
2044,0.481704
2046,0.485896
2048,0.490116
2050,0.494128
2052,0.498051
2054,0.501792
2056,0.505401
2058,0.508853
2060,0.51207
2062,0.51518
2064,0.518102
2066,0.520916
2068,0.52354
2070,0.52606
2072,0.528431
2074,0.530675
2076,0.532767
2078,0.534718
2080,0.536585
2082,0.538329
2084,0.539973
2086,0.541446
2088,0.542783
2090,0.543985
2092,0.545061
2094,0.545964
2096,0.546681
2098,0.547285
2100,0.547788
2102,0.54814
2104,0.548366
2106,0.548444
2108,0.548349
2110,0.548115
2112,0.547756
2114,0.547279
2116,0.546584
2118,0.545747
2120,0.544795
2122,0.543717
2124,0.542416
2126,0.540992
2128,0.539417
2130,0.537768
2132,0.536022
2134,0.534186
2136,0.532318
2138,0.530381
2140,0.528439
2142,0.526358
2144,0.524303
2146,0.522067
2148,0.519835
2150,0.517526
2152,0.51522
2154,0.512902
2156,0.510602
2158,0.508361
2160,0.506072
2162,0.503909
2164,0.501702
2166,0.499552
2168,0.497378
2170,0.495239
2172,0.493062
2174,0.490932
2176,0.488768
2178,0.486518
2180,0.484287
2182,0.481997
2184,0.479731
2186,0.477404
2188,0.475155
2190,0.472877
2192,0.470744
2194,0.468598
2196,0.466538
2198,0.464565
2200,0.462658
2202,0.46077
2204,0.458941
2206,0.457198
2208,0.455521
2210,0.453965
2212,0.452478
2214,0.451127
2216,0.449901
2218,0.448836
2220,0.447934
2222,0.447272
2224,0.446847
2226,0.446752
2228,0.446992
2230,0.4476
2232,0.448586
2234,0.450016
2236,0.451956
2238,0.454377
2240,0.457284
2242,0.460717
2244,0.464674
2246,0.469076
2248,0.473938
2250,0.479199
2252,0.484674
2254,0.490471
2256,0.496273
2258,0.502263
2260,0.508018
2262,0.513916
2264,0.519537
2266,0.525153
2268,0.530646
2270,0.536266
2272,0.54183
2274,0.547309
2276,0.552639
2278,0.55753
2280,0.561746
2282,0.565019
2284,0.567242
2286,0.568456
2288,0.568845
2290,0.568847
2292,0.568794
2294,0.568892
2296,0.56952
2298,0.57067
2300,0.572332
2302,0.574271
2304,0.576561
2306,0.578795
2308,0.5807
2310,0.582174
2312,0.583235
2314,0.583809
2316,0.584043
2318,0.583955
2320,0.583772
2322,0.583428
2324,0.582934
2326,0.582301
2328,0.581603
2330,0.580756
2332,0.579973
2334,0.579292
2336,0.578654
2338,0.578159
2340,0.577655
2342,0.577135
2344,0.576591
2346,0.575917
2348,0.574988
2350,0.573763
2352,0.572447
2354,0.571334
2356,0.570285
2358,0.569423
2360,0.568853
2362,0.568475
2364,0.568195
2366,0.567972
2368,0.567805
2370,0.567673
2372,0.567452
2374,0.567305
2376,0.567103
2378,0.566736
2380,0.566608
2382,0.566387
2384,0.566326
2386,0.56637
2388,0.566659
2390,0.567237
2392,0.56809
2394,0.569199
2396,0.570673
2398,0.572367
2400,0.574336
2402,0.576683
2404,0.57924
2406,0.582074
2408,0.584848
2410,0.587978
2412,0.591261
2414,0.594633
2416,0.598007
2418,0.601448
2420,0.604851
2422,0.608336
2424,0.611881
2426,0.615493
2428,0.619074
2430,0.622829
2432,0.626651
2434,0.630657
2436,0.634667
2438,0.638684
2440,0.642647
2442,0.646679
2444,0.650535
2446,0.654423
2448,0.658344
2450,0.662059
2452,0.665883
2454,0.669547
2456,0.673254
2458,0.676526
2460,0.680123
2462,0.683452
2464,0.686992
2466,0.690239
2468,0.693391
2470,0.69623
2472,0.699221
2474,0.701851
2476,0.704365
2478,0.706419
2480,0.708336
2482,0.709864
2484,0.711076
2486,0.711902
2488,0.712532
2490,0.713101
2492,0.713109
2494,0.713036
2496,0.712815
2498,0.712129
