wavenumber,intensity
1100,-0.0189356
1102,-0.0190151
1104,-0.0190537
1106,-0.0190497
1108,-0.0190056
1110,-0.0188836
1112,-0.0187367
1114,-0.018526
1116,-0.018241
1118,-0.0178754
1120,-0.0173786
1122,-0.0167656
1124,-0.0159223
1126,-0.0148795
1128,-0.0135726
1130,-0.0120129
1132,-0.0101164
1134,-0.0079622
1136,-0.005543
1138,-0.0029259
1140,-2.7e-05
1142,0.0030241
1144,0.0061836
1146,0.0095098
1148,0.0129356
1150,0.0163729
1152,0.0198272
1154,0.0232329
1156,0.026611
1158,0.0298626
1160,0.0329553
1162,0.035952
1164,0.0387537
1166,0.0413292
1168,0.0437983
1170,0.0461525
1172,0.0484669
1174,0.0507377
1176,0.0529733
1178,0.0552551
1180,0.0575472
1182,0.059764
1184,0.061967
1186,0.0640858
1188,0.0660731
1190,0.0678607
1192,0.0694473
1194,0.0708205
1196,0.0719374
1198,0.0727679
1200,0.0733747
1202,0.0737033
1204,0.0737753
1206,0.0735687
1208,0.0730919
1210,0.0723247
1212,0.0712823
1214,0.0700165
1216,0.0685022
1218,0.0668337
1220,0.0650864
1222,0.0632748
1224,0.0614746
1226,0.0596844
1228,0.0579667
1230,0.0563576
1232,0.054814
1234,0.0533844
1236,0.0521148
1238,0.0509374
1240,0.0499129
1242,0.0489979
1244,0.0482001
1246,0.0475162
1248,0.0469206
1250,0.046403
1252,0.0459649
1254,0.045573
1256,0.0452396
1258,0.0449266
1260,0.0446401
1262,0.0443653
1264,0.0440955
1266,0.0438347
1268,0.0435527
1270,0.0432517
1272,0.042931
1274,0.0425851
1276,0.0422059
1278,0.0418068
1280,0.04138
1282,0.0409382
1284,0.0405054
1286,0.0400724
1288,0.0396751
1290,0.0393102
1292,0.038995
1294,0.0387409
1296,0.0385618
1298,0.0384505
1300,0.0384131
1302,0.0384717
1304,0.0386287
1306,0.0388929
1308,0.0392711
1310,0.0397622
1312,0.0403985
1314,0.0411581
1316,0.0420617
1318,0.0431223
1320,0.0442982
1322,0.0456771
1324,0.04722
1326,0.0488778
1328,0.0507637
1330,0.0527861
1332,0.054962
1334,0.0573059
1336,0.0597246
1338,0.0623401
1340,0.0650193
1342,0.0677243
1344,0.0705704
1346,0.0733921
1348,0.0762713
1350,0.0791473
1352,0.0819378
1354,0.0848077
1356,0.0876089
1358,0.0902493
1360,0.0928768
1362,0.095354
1364,0.0977909
1366,0.100133
1368,0.102357
1370,0.104621
1372,0.106796
1374,0.108928
1376,0.111104
1378,0.113336
1380,0.115816
1382,0.118554
1384,0.1216
1386,0.125126
1388,0.129037
1390,0.133396
1392,0.138207
1394,0.143328
1396,0.149159
1398,0.155358
1400,0.161993
1402,0.169208
1404,0.176795
1406,0.184925
1408,0.193325
1410,0.201795
1412,0.210647
1414,0.219436
1416,0.228221
1418,0.236926
1420,0.245266
1422,0.25355
1424,0.261359
1426,0.268565
1428,0.275479
1430,0.281656
1432,0.287376
1434,0.292413
1436,0.296815
1438,0.300746
1440,0.304108
1442,0.306968
1444,0.30941
1446,0.311438
1448,0.313191
1450,0.314681
1452,0.3159
1454,0.316949
1456,0.317784
1458,0.318504
1460,0.31909
1462,0.319515
1464,0.319827
1466,0.319988
1468,0.320006
1470,0.31986
1472,0.31956
1474,0.319107
1476,0.318545
1478,0.317838
1480,0.317037
1482,0.316154
1484,0.315205
1486,0.314191
1488,0.313148
1490,0.312019
1492,0.310847
1494,0.30961
1496,0.308332
1498,0.307071
1500,0.305722
1502,0.304375
1504,0.303032
1506,0.301687
1508,0.300373
1510,0.299049
1512,0.297728
1514,0.296492
1516,0.295285
1518,0.294133
1520,0.293039
1522,0.291981
1524,0.291058
1526,0.290139
1528,0.289303
1530,0.28852
1532,0.287855
1534,0.28727
1536,0.286703
1538,0.286191
1540,0.285742
1542,0.285352
1544,0.284988
1546,0.284656
1548,0.28433
1550,0.284037
1552,0.283766
1554,0.283502
1556,0.283246
1558,0.282989
1560,0.282732
1562,0.282467
1564,0.282164
1566,0.281818
1568,0.28143
1570,0.280958
1572,0.280413
1574,0.27979
1576,0.279095
1578,0.278285
1580,0.277404
1582,0.276392
1584,0.275264
1586,0.274049
1588,0.272689
1590,0.271249
1592,0.26969
1594,0.268022
1596,0.266278
1598,0.264445
1600,0.26257
1602,0.26061
1604,0.258619
1606,0.256636
1608,0.254613
1610,0.252613
1612,0.250588
1614,0.248555
1616,0.246593
1618,0.244621
1620,0.242683
1622,0.240768
1624,0.238871
1626,0.237066
1628,0.235272
1630,0.233527
1632,0.231791
1634,0.230095
1636,0.228487
1638,0.226912
1640,0.225408
1642,0.22391
1644,0.222465
1646,0.221132
1648,0.219846
1650,0.218671
1652,0.217581
1654,0.216585
1656,0.215747
1658,0.214984
1660,0.214317
1662,0.213777
1664,0.213344
1666,0.213047
1668,0.21292
1670,0.212991
1672,0.213346
1674,0.213971
1676,0.21493
1678,0.216259
1680,0.217921
1682,0.220041
1684,0.222479
1686,0.225195
1688,0.228159
1690,0.231166
1692,0.234199
1694,0.237046
1696,0.239612
1698,0.241867
1700,0.243747
1702,0.24526
1704,0.246383
1706,0.247169
1708,0.247696
1710,0.248066
1712,0.248374
1714,0.248669
1716,0.248979
1718,0.249331
1720,0.249705
1722,0.250098
1724,0.250467
1726,0.250837
1728,0.251154
1730,0.25143
1732,0.251702
1734,0.252034
1736,0.252467
1738,0.253018
1740,0.253727
1742,0.254563
1744,0.255456
1746,0.256362
1748,0.257229
1750,0.25797
1752,0.258595
1754,0.259104
1756,0.259536
1758,0.259888
1760,0.260175
1762,0.260439
1764,0.260657
1766,0.26086
1768,0.261056
1770,0.261247
1772,0.261387
1774,0.261432
1776,0.261342
1778,0.261045
1780,0.260522
1782,0.259783
1784,0.258831
1786,0.257714
1788,0.256474
1790,0.255073
1792,0.253614
1794,0.252105
1796,0.250578
1798,0.249065
1800,0.24752
1802,0.246076
1804,0.244667
1806,0.243353
1808,0.242142
1810,0.240983
1812,0.239937
1814,0.238928
1816,0.237968
1818,0.237015
1820,0.236019
1822,0.235016
1824,0.233914
1826,0.232768
1828,0.231544
1830,0.230242
1832,0.228911
1834,0.227491
1836,0.226075
1838,0.224647
1840,0.223251
1842,0.221945
1844,0.220769
1846,0.219742
1848,0.218894
1850,0.21829
1852,0.217914
1854,0.217834
1856,0.218033
1858,0.218535
1860,0.219349
1862,0.22049
1864,0.221921
1866,0.22376
1868,0.226011
1870,0.228725
1872,0.232144
1874,0.236092
1876,0.240729
1878,0.246017
1880,0.252036
1882,0.258936
1884,0.2667
1886,0.275676
1888,0.285558
1890,0.296512
1892,0.308397
1894,0.320988
1896,0.334456
1898,0.348252
1900,0.362459
1902,0.376621
1904,0.390392
1906,0.403778
1908,0.416382
1910,0.428407
1912,0.439402
1914,0.449628
1916,0.458892
1918,0.467208
1920,0.474687
1922,0.481217
1924,0.486764
1926,0.491243
1928,0.494674
1930,0.496882
1932,0.497984
1934,0.498036
1936,0.497083
1938,0.495214
1940,0.492636
1942,0.489552
1944,0.486002
1946,0.482149
1948,0.478109
1950,0.473963
1952,0.469687
1954,0.46541
1956,0.461154
1958,0.456955
1960,0.45279
1962,0.44868
1964,0.444571
1966,0.44049
1968,0.436474
1970,0.432481
1972,0.428554
1974,0.424649
1976,0.420783
1978,0.416966
1980,0.413174
1982,0.409446
1984,0.405772
1986,0.402251
1988,0.39886
1990,0.395622
1992,0.392571
1994,0.389697
1996,0.387092
1998,0.384755
2000,0.382685
2002,0.380956
2004,0.379618
2006,0.378592
2008,0.377937
2010,0.377656
2012,0.377761
2014,0.378243
2016,0.379126
2018,0.380442
2020,0.382094
2022,0.384117
2024,0.386493
2026,0.389252
2028,0.392364
2030,0.395651
2032,0.399153
2034,0.402833
2036,0.406623
2038,0.410543
2040,0.414578
2042,0.418651
2044,0.422789
2046,0.426869
2048,0.43096
2050,0.434881
2052,0.438784
2054,0.442539
2056,0.446135
2058,0.449619
2060,0.452945
2062,0.456127
2064,0.459141
2066,0.462045
2068,0.464739
2070,0.467335
2072,0.469805
2074,0.472153
2076,0.474412
2078,0.476492
2080,0.478511
2082,0.480384
2084,0.48211
2086,0.483635
2088,0.485092
2090,0.48637
2092,0.487486
2094,0.488469
2096,0.489262
2098,0.489957
2100,0.490518
2102,0.49088
2104,0.491115
2106,0.491133
2108,0.491035
2110,0.490823
2112,0.490429
2114,0.489881
2116,0.489195
2118,0.488378
2120,0.487342
2122,0.486219
2124,0.484905
2126,0.483464
2128,0.481868
2130,0.480126
2132,0.478285
2134,0.476388
2136,0.474367
2138,0.472361
2140,0.470293
2142,0.468098
2144,0.465946
2146,0.463587
2148,0.46122
2150,0.458813
2152,0.456384
2154,0.453944
2156,0.451519
2158,0.449106
2160,0.446681
2162,0.444324
2164,0.441983
2166,0.439734
2168,0.43745
2170,0.435185
2172,0.432835
2174,0.430566
2176,0.428207
2178,0.425869
2180,0.423523
2182,0.421099
2184,0.418719
2186,0.416308
2188,0.413981
2190,0.411642
2192,0.409474
2194,0.407242
2196,0.405154
2198,0.403036
2200,0.40105
2202,0.399058
2204,0.397148
2206,0.395334
2208,0.393592
2210,0.39195
2212,0.390418
2214,0.388993
2216,0.387633
2218,0.386447
2220,0.385451
2222,0.384587
2224,0.384016
2226,0.38368
2228,0.38368
2230,0.384044
2232,0.384775
2234,0.385908
2236,0.387532
2238,0.389645
2240,0.392304
2242,0.395437
2244,0.399044
2246,0.403212
2248,0.407835
2250,0.41296
2252,0.418391
2254,0.42416
2256,0.430065
2258,0.436289
2260,0.44227
2262,0.448427
2264,0.45441
2266,0.460404
2268,0.466332
2270,0.472296
2272,0.478254
2274,0.484273
2276,0.4902
2278,0.495691
2280,0.500419
2282,0.50404
2284,0.506389
2286,0.507568
2288,0.507735
2290,0.507286
2292,0.506756
2294,0.506481
2296,0.506696
2298,0.507605
2300,0.50917
2302,0.511127
2304,0.513524
2306,0.515813
2308,0.517949
2310,0.519588
2312,0.520752
2314,0.521432
2316,0.521721
2318,0.521691
2320,0.52147
2322,0.521021
2324,0.520406
2326,0.519627
2328,0.518687
2330,0.517673
2332,0.516645
2334,0.515663
2336,0.514801
2338,0.514045
2340,0.513364
2342,0.512775
2344,0.512097
2346,0.511296
2348,0.510257
2350,0.509092
2352,0.507908
2354,0.506831
2356,0.505878
2358,0.505153
2360,0.504642
2362,0.504414
2364,0.504275
2366,0.504253
2368,0.504222
2370,0.504138
2372,0.504077
2374,0.50393
2376,0.503687
2378,0.503449
2380,0.503276
2382,0.503208
2384,0.503299
2386,0.503477
2388,0.503879
2390,0.504586
2392,0.505611
2394,0.506881
2396,0.508513
2398,0.510494
2400,0.512742
2402,0.515287
2404,0.518137
2406,0.521242
2408,0.524448
2410,0.527839
2412,0.531261
2414,0.534836
2416,0.538525
2418,0.542243
2420,0.545915
2422,0.54966
2424,0.553387
2426,0.557157
2428,0.560894
2430,0.564943
2432,0.568793
2434,0.572882
2436,0.577023
2438,0.58117
2440,0.585437
2442,0.589642
2444,0.59384
2446,0.597906
2448,0.601771
2450,0.605505
2452,0.609255
2454,0.612895
2456,0.616639
2458,0.620116
2460,0.623724
2462,0.627069
2464,0.630579
2466,0.633823
2468,0.637103
2470,0.640077
2472,0.642953
2474,0.645607
2476,0.647949
2478,0.650094
2480,0.651954
2482,0.653391
2484,0.65472
2486,0.655548
2488,0.656189
2490,0.656524
2492,0.656727
2494,0.656592
2496,0.656348
2498,0.655846
