wavenumber,intensity
1100,0.0155582
1102,0.0154548
1104,0.0154031
1106,0.0154061
1108,0.0154644
1110,0.0155902
1112,0.0157602
1114,0.0160114
1116,0.0163797
1118,0.0168609
1120,0.0174989
1122,0.0183208
1124,0.0194217
1126,0.020797
1128,0.0225288
1130,0.024587
1132,0.0270937
1134,0.0299482
1136,0.0331511
1138,0.0366181
1140,0.0404566
1142,0.0445045
1144,0.048709
1146,0.0531743
1148,0.0577794
1150,0.0624256
1152,0.0671032
1154,0.0717648
1156,0.0764244
1158,0.0809391
1160,0.085246
1162,0.0894087
1164,0.0933342
1166,0.0969324
1168,0.100378
1170,0.103646
1172,0.106837
1174,0.109971
1176,0.113058
1178,0.116219
1180,0.119382
1182,0.122456
1184,0.125505
1186,0.128418
1188,0.131128
1190,0.133564
1192,0.135696
1194,0.137521
1196,0.139009
1198,0.140112
1200,0.140906
1202,0.141342
1204,0.141416
1206,0.141113
1208,0.140441
1210,0.139353
1212,0.137875
1214,0.136072
1216,0.13391
1218,0.131512
1220,0.128978
1222,0.126343
1224,0.123711
1226,0.121108
1228,0.118602
1230,0.116265
1232,0.114025
1234,0.111975
1236,0.110122
1238,0.108414
1240,0.106907
1242,0.105537
1244,0.104349
1246,0.103311
1248,0.102378
1250,0.101567
1252,0.100899
1254,0.100279
1256,0.099746
1258,0.0992461
1260,0.0987939
1262,0.0983888
1264,0.097985
1266,0.0975918
1268,0.0971876
1270,0.0967569
1272,0.096296
1274,0.0957825
1276,0.0952246
1278,0.0946401
1280,0.0940065
1282,0.0933608
1284,0.0927191
1286,0.0920719
1288,0.0914702
1290,0.090912
1292,0.0904324
1294,0.0900403
1296,0.0897384
1298,0.0895502
1300,0.0894829
1302,0.0895388
1304,0.0897179
1306,0.090037
1308,0.0905179
1310,0.0911514
1312,0.0919962
1314,0.0930061
1316,0.0941942
1318,0.0956122
1320,0.0972106
1322,0.0990623
1324,0.101144
1326,0.10341
1328,0.105985
1330,0.108752
1332,0.111749
1334,0.114986
1336,0.118331
1338,0.121962
1340,0.125696
1342,0.129487
1344,0.133479
1346,0.137504
1348,0.141572
1350,0.145658
1352,0.149624
1354,0.153689
1356,0.157627
1358,0.161347
1360,0.165018
1362,0.168468
1364,0.171859
1366,0.17509
1368,0.178148
1370,0.181242
1372,0.184208
1374,0.187132
1376,0.190129
1378,0.193199
1380,0.196622
1382,0.200386
1384,0.204536
1386,0.209302
1388,0.214535
1390,0.220281
1392,0.226579
1394,0.233244
1396,0.240831
1398,0.248873
1400,0.257431
1402,0.266723
1404,0.276421
1406,0.286746
1408,0.297378
1410,0.308015
1412,0.319099
1414,0.330028
1416,0.340793
1418,0.351397
1420,0.361451
1422,0.371363
1424,0.380673
1426,0.3892
1428,0.397298
1430,0.404516
1432,0.411164
1434,0.416957
1436,0.422022
1438,0.426523
1440,0.430377
1442,0.433646
1444,0.436468
1446,0.438807
1448,0.440835
1450,0.442526
1452,0.443911
1454,0.445113
1456,0.446108
1458,0.446976
1460,0.447664
1462,0.448175
1464,0.448522
1466,0.448679
1468,0.448707
1470,0.448526
1472,0.448227
1474,0.447724
1476,0.447074
1478,0.446327
1480,0.445453
1482,0.444475
1484,0.443449
1486,0.442363
1488,0.441251
1490,0.440057
1492,0.438791
1494,0.43742
1496,0.436043
1498,0.434625
1500,0.433081
1502,0.431563
1504,0.430029
1506,0.428526
1508,0.427012
1510,0.425469
1512,0.423951
1514,0.422539
1516,0.421159
1518,0.419834
1520,0.418589
1522,0.417403
1524,0.416316
1526,0.41523
1528,0.414235
1530,0.413328
1532,0.412524
1534,0.411802
1536,0.411169
1538,0.410578
1540,0.410032
1542,0.409554
1544,0.409114
1546,0.408705
1548,0.408314
1550,0.407992
1552,0.407674
1554,0.407351
1556,0.407024
1558,0.406703
1560,0.406396
1562,0.406075
1564,0.405737
1566,0.405339
1568,0.404892
1570,0.40435
1572,0.403737
1574,0.403028
1576,0.402241
1578,0.401307
1580,0.400303
1582,0.39915
1584,0.397856
1586,0.396445
1588,0.39489
1590,0.393236
1592,0.391432
1594,0.389507
1596,0.387513
1598,0.385393
1600,0.383236
1602,0.380972
1604,0.378663
1606,0.37636
1608,0.374021
1610,0.37172
1612,0.369355
1614,0.367004
1616,0.364703
1618,0.362405
1620,0.360155
1622,0.357926
1624,0.35571
1626,0.353588
1628,0.351449
1630,0.349387
1632,0.347344
1634,0.345349
1636,0.343462
1638,0.341598
1640,0.339817
1642,0.338078
1644,0.336416
1646,0.334878
1648,0.33342
1650,0.332093
1652,0.330877
1654,0.329832
1656,0.328983
1658,0.328284
1660,0.327749
1662,0.327331
1664,0.327046
1666,0.326942
1668,0.32703
1670,0.327352
1672,0.328027
1674,0.329037
1676,0.330484
1678,0.332379
1680,0.334672
1682,0.33751
1684,0.340741
1686,0.344309
1688,0.348125
1690,0.351978
1692,0.355869
1694,0.359525
1696,0.362904
1698,0.365932
1700,0.368505
1702,0.370678
1704,0.372392
1706,0.373705
1708,0.374688
1710,0.375454
1712,0.376138
1714,0.376767
1716,0.377407
1718,0.378035
1720,0.378637
1722,0.379225
1724,0.379728
1726,0.380129
1728,0.380333
1730,0.380392
1732,0.380391
1734,0.38038
1736,0.380482
1738,0.380782
1740,0.381309
1742,0.382014
1744,0.382875
1746,0.383833
1748,0.384751
1750,0.385584
1752,0.386354
1754,0.386987
1756,0.387499
1758,0.387892
1760,0.38821
1762,0.388403
1764,0.388537
1766,0.388602
1768,0.388604
1770,0.38858
1772,0.388507
1774,0.388389
1776,0.388102
1778,0.387659
1780,0.387004
1782,0.386124
1784,0.385042
1786,0.383757
1788,0.382356
1790,0.380768
1792,0.379124
1794,0.377412
1796,0.375671
1798,0.373972
1800,0.372213
1802,0.370533
1804,0.368912
1806,0.367412
1808,0.366009
1810,0.364629
1812,0.363366
1814,0.362156
1816,0.360979
1818,0.359822
1820,0.358602
1822,0.357399
1824,0.356026
1826,0.35463
1828,0.353148
1830,0.351609
1832,0.35001
1834,0.348335
1836,0.346624
1838,0.344853
1840,0.343129
1842,0.341496
1844,0.339987
1846,0.338732
1848,0.337698
1850,0.336946
1852,0.336482
1854,0.336378
1856,0.336596
1858,0.337212
1860,0.338199
1862,0.339589
1864,0.341307
1866,0.343488
1868,0.346161
1870,0.349356
1872,0.35332
1874,0.357883
1876,0.363219
1878,0.369318
1880,0.376264
1882,0.384217
1884,0.393168
1886,0.403435
1888,0.41465
1890,0.42705
1892,0.440314
1894,0.454255
1896,0.469073
1898,0.484132
1900,0.499516
1902,0.514677
1904,0.529357
1906,0.54342
1908,0.556583
1910,0.569001
1912,0.580368
1914,0.590824
1916,0.600203
1918,0.608494
1920,0.615933
1922,0.622351
1924,0.627781
1926,0.632127
1928,0.635438
1930,0.637533
1932,0.638602
1934,0.638664
1936,0.637775
1938,0.636059
1940,0.633649
1942,0.63059
1944,0.627132
1946,0.623418
1948,0.619435
1950,0.615384
1952,0.611245
1954,0.607033
1956,0.602806
1958,0.598661
1960,0.594611
1962,0.590598
1964,0.586633
1966,0.582628
1968,0.578715
1970,0.574808
1972,0.57098
1974,0.567115
1976,0.563274
1978,0.559429
1980,0.555608
1982,0.551851
1984,0.548179
1986,0.54459
1988,0.541195
1990,0.537894
1992,0.534738
1994,0.531762
1996,0.529086
1998,0.526686
2000,0.524573
2002,0.52285
2004,0.521462
2006,0.520446
2008,0.519832
2010,0.519671
2012,0.519945
2014,0.520631
2016,0.521686
2018,0.52319
2020,0.525059
2022,0.527366
2024,0.530055
2026,0.533127
2028,0.536584
2030,0.540277
2032,0.544116
2034,0.548212
2036,0.552456
2038,0.556813
2040,0.561183
2042,0.565581
2044,0.569983
2046,0.574321
2048,0.57863
2050,0.582784
2052,0.586849
2054,0.590657
2056,0.59433
2058,0.597849
2060,0.601115
2062,0.604277
2064,0.607203
2066,0.609905
2068,0.612399
2070,0.614839
2072,0.617106
2074,0.619256
2076,0.621361
2078,0.623269
2080,0.625111
2082,0.626849
2084,0.628509
2086,0.629978
2088,0.63132
2090,0.632454
2092,0.633492
2094,0.634408
2096,0.635167
2098,0.635826
2100,0.636326
2102,0.636646
2104,0.636851
2106,0.636944
2108,0.636954
2110,0.636777
2112,0.636411
2114,0.635824
2116,0.635123
2118,0.634322
2120,0.633372
2122,0.632301
2124,0.631025
2126,0.629591
2128,0.628006
2130,0.626391
2132,0.624759
2134,0.62299
2136,0.621156
2138,0.619189
2140,0.617251
2142,0.615224
2144,0.61324
2146,0.61106
2148,0.608834
2150,0.606506
2152,0.604225
2154,0.601989
2156,0.599743
2158,0.59747
2160,0.595191
2162,0.593032
2164,0.590816
2166,0.588741
2168,0.5866
2170,0.584525
2172,0.582271
2174,0.580035
2176,0.577775
2178,0.575545
2180,0.573258
2182,0.570864
2184,0.568442
2186,0.565977
2188,0.563609
2190,0.561246
2192,0.558983
2194,0.556677
2196,0.554475
2198,0.552328
2200,0.550394
2202,0.54844
2204,0.546465
2206,0.544533
2208,0.542669
2210,0.540975
2212,0.539427
2214,0.538044
2216,0.53675
2218,0.535623
2220,0.534646
2222,0.533941
2224,0.53356
2226,0.533406
2228,0.533569
2230,0.53415
2232,0.53518
2234,0.536734
2236,0.538804
2238,0.54136
2240,0.544453
2242,0.54814
2244,0.552392
2246,0.557187
2248,0.562303
2250,0.567728
2252,0.573516
2254,0.579574
2256,0.585569
2258,0.591961
2260,0.597978
2262,0.60412
2264,0.610041
2266,0.616083
2268,0.621921
2270,0.627725
2272,0.633366
2274,0.639126
2276,0.644587
2278,0.649762
2280,0.654131
2282,0.657529
2284,0.659887
2286,0.661353
2288,0.662126
2290,0.66243
2292,0.662497
2294,0.66277
2296,0.663583
2298,0.665009
2300,0.667023
2302,0.6693
2304,0.671812
2306,0.674148
2308,0.676145
2310,0.677556
2312,0.678397
2314,0.678502
2316,0.678358
2318,0.678049
2320,0.677603
2322,0.677173
2324,0.676563
2326,0.675947
2328,0.675103
2330,0.674416
2332,0.673847
2334,0.673225
2336,0.672652
2338,0.672344
2340,0.67208
2342,0.671886
2344,0.671478
2346,0.670879
2348,0.669992
2350,0.668911
2352,0.667775
2354,0.666539
2356,0.665278
2358,0.664234
2360,0.663586
2362,0.663062
2364,0.662797
2366,0.662589
2368,0.662343
2370,0.662232
2372,0.662126
2374,0.66205
2376,0.661847
2378,0.661464
2380,0.661204
2382,0.661111
2384,0.661094
2386,0.661174
2388,0.661527
2390,0.662122
2392,0.663045
2394,0.664337
2396,0.665812
2398,0.667466
2400,0.669409
2402,0.671711
2404,0.674283
2406,0.677105
2408,0.679904
2410,0.682994
2412,0.686251
2414,0.689699
2416,0.692987
2418,0.696293
2420,0.699571
2422,0.703022
2424,0.706503
2426,0.709973
2428,0.713502
2430,0.717207
2432,0.721032
2434,0.725184
2436,0.729118
2438,0.732906
2440,0.73684
2442,0.740711
2444,0.744782
2446,0.74849
2448,0.752127
2450,0.755744
2452,0.759597
2454,0.763295
2456,0.766902
2458,0.770102
2460,0.773376
2462,0.77663
2464,0.780188
2466,0.78327
2468,0.786327
2470,0.789097
2472,0.792127
2474,0.794689
2476,0.796923
2478,0.798878
2480,0.800652
2482,0.802084
2484,0.803158
2486,0.803848
2488,0.804578
2490,0.80503
2492,0.805532
2494,0.805514
2496,0.805195
2498,0.80443
