wavenumber,intensity
1100,-0.0008672
1102,-0.0009451
1104,-0.0009693
1106,-0.0009419
1108,-0.0008788
1110,-0.000743
1112,-0.0005521
1114,-0.0002927
1116,7.11e-05
1118,0.0005472
1120,0.001195
1122,0.0020079
1124,0.0031141
1126,0.0044842
1128,0.0061936
1130,0.0082453
1132,0.010722
1134,0.0135295
1136,0.0166787
1138,0.0200785
1140,0.0238222
1142,0.0277465
1144,0.0318044
1146,0.0360734
1148,0.0404562
1150,0.044865
1152,0.0492938
1154,0.0536729
1156,0.0580175
1158,0.0622086
1160,0.0661985
1162,0.0700468
1164,0.0736294
1166,0.0769072
1168,0.0800326
1170,0.0829988
1172,0.0859088
1174,0.088743
1176,0.0915326
1178,0.0943808
1180,0.0972494
1182,0.100015
1184,0.102764
1186,0.105405
1188,0.107856
1190,0.11006
1192,0.111996
1194,0.113658
1196,0.11502
1198,0.116028
1200,0.116755
1202,0.117161
1204,0.117242
1206,0.116986
1208,0.116376
1210,0.115399
1212,0.114066
1214,0.112431
1216,0.110459
1218,0.108272
1220,0.105967
1222,0.103574
1224,0.101196
1226,0.0988345
1228,0.0965734
1230,0.0944705
1232,0.0924628
1234,0.0905969
1236,0.0889435
1238,0.087409
1240,0.0860674
1242,0.0848669
1244,0.0838035
1246,0.0828936
1248,0.0820854
1250,0.0813735
1252,0.0807769
1254,0.0802306
1256,0.0797679
1258,0.0793309
1260,0.0789382
1262,0.0785658
1264,0.0782059
1266,0.0778568
1268,0.0774986
1270,0.0771119
1272,0.0767018
1274,0.0762594
1276,0.0757765
1278,0.075266
1280,0.0747141
1282,0.0741461
1284,0.0735922
1286,0.0730346
1288,0.072526
1290,0.0720447
1292,0.0716284
1294,0.0713026
1296,0.0710652
1298,0.0709223
1300,0.0708805
1302,0.0709555
1304,0.0711527
1306,0.0714848
1308,0.0719601
1310,0.0725679
1312,0.0733639
1314,0.0743187
1316,0.0754518
1318,0.0767837
1320,0.0782595
1322,0.0799823
1324,0.0819103
1326,0.0839879
1328,0.0863494
1330,0.0888722
1332,0.0915915
1334,0.0945192
1336,0.097544
1338,0.100826
1340,0.104196
1342,0.107593
1344,0.111174
1346,0.114737
1348,0.118384
1350,0.122022
1352,0.125561
1354,0.129207
1356,0.132739
1358,0.136071
1360,0.139381
1362,0.14249
1364,0.145548
1366,0.148456
1368,0.151225
1370,0.154029
1372,0.156741
1374,0.159416
1376,0.162181
1378,0.165029
1380,0.168193
1382,0.171668
1384,0.175503
1386,0.179921
1388,0.184788
1390,0.190175
1392,0.196097
1394,0.202347
1396,0.209451
1398,0.216938
1400,0.224928
1402,0.233657
1404,0.242814
1406,0.252584
1408,0.262685
1410,0.272805
1412,0.283401
1414,0.293871
1416,0.304224
1418,0.314456
1420,0.324213
1422,0.333862
1424,0.342951
1426,0.351321
1428,0.359315
1430,0.366467
1432,0.373105
1434,0.37892
1436,0.384001
1438,0.388499
1440,0.392332
1442,0.395584
1444,0.398362
1446,0.400689
1448,0.402693
1450,0.404373
1452,0.405758
1454,0.406974
1456,0.407953
1458,0.408793
1460,0.409481
1462,0.409997
1464,0.410363
1466,0.410551
1468,0.410579
1470,0.41042
1472,0.410081
1474,0.409575
1476,0.40894
1478,0.408154
1480,0.407266
1482,0.40628
1484,0.405239
1486,0.404094
1488,0.402905
1490,0.401641
1492,0.400328
1494,0.398939
1496,0.397495
1498,0.396014
1500,0.394479
1502,0.39295
1504,0.391425
1506,0.38991
1508,0.388408
1510,0.386883
1512,0.38538
1514,0.383979
1516,0.382587
1518,0.381242
1520,0.37995
1522,0.378712
1524,0.377602
1526,0.376537
1528,0.375566
1530,0.374685
1532,0.37385
1534,0.373123
1536,0.372427
1538,0.371788
1540,0.371223
1542,0.370708
1544,0.370218
1546,0.369791
1548,0.369354
1550,0.368942
1552,0.368583
1554,0.368242
1556,0.367908
1558,0.367572
1560,0.367249
1562,0.366901
1564,0.366523
1566,0.366094
1568,0.365626
1570,0.365069
1572,0.364452
1574,0.363707
1576,0.362867
1578,0.361916
1580,0.360886
1582,0.359711
1584,0.358406
1586,0.357018
1588,0.35547
1590,0.353833
1592,0.352038
1594,0.350116
1596,0.348114
1598,0.346011
1600,0.343852
1602,0.341604
1604,0.339312
1606,0.337035
1608,0.334708
1610,0.332407
1612,0.33008
1614,0.327754
1616,0.325504
1618,0.323256
1620,0.321046
1622,0.318852
1624,0.316677
1626,0.3146
1628,0.312532
1630,0.310518
1632,0.308517
1634,0.30658
1636,0.304717
1638,0.30289
1640,0.301158
1642,0.299464
1644,0.297854
1646,0.296378
1648,0.294963
1650,0.293677
1652,0.292511
1654,0.291504
1656,0.290677
1658,0.29001
1660,0.289466
1662,0.289056
1664,0.288763
1666,0.288634
1668,0.288678
1670,0.288968
1672,0.289601
1674,0.290571
1676,0.291933
1678,0.293726
1680,0.295899
1682,0.298623
1684,0.301721
1686,0.305171
1688,0.308873
1690,0.312613
1692,0.316375
1694,0.319937
1696,0.323221
1698,0.326204
1700,0.328807
1702,0.331026
1704,0.332799
1706,0.334138
1708,0.335163
1710,0.335969
1712,0.336664
1714,0.337312
1716,0.337944
1718,0.33858
1720,0.339189
1722,0.339754
1724,0.340191
1726,0.340493
1728,0.340605
1730,0.340575
1732,0.340428
1734,0.340326
1736,0.340327
1738,0.340539
1740,0.340997
1742,0.341683
1744,0.342533
1746,0.343496
1748,0.344455
1750,0.345317
1752,0.346089
1754,0.346753
1756,0.347333
1758,0.347788
1760,0.348131
1762,0.348345
1764,0.348456
1766,0.348469
1768,0.348421
1770,0.348369
1772,0.348258
1774,0.348088
1776,0.347777
1778,0.347281
1780,0.346572
1782,0.345658
1784,0.344543
1786,0.343259
1788,0.341847
1790,0.340265
1792,0.338623
1794,0.33692
1796,0.335165
1798,0.333443
1800,0.331678
1802,0.330014
1804,0.328386
1806,0.326869
1808,0.325464
1810,0.324122
1812,0.322905
1814,0.321718
1816,0.320584
1818,0.319463
1820,0.318278
1822,0.317077
1824,0.315765
1826,0.314412
1828,0.312968
1830,0.311458
1832,0.309927
1834,0.308298
1836,0.306665
1838,0.304993
1840,0.3034
1842,0.301857
1844,0.300444
1846,0.29926
1848,0.298268
1850,0.297537
1852,0.297108
1854,0.297034
1856,0.297285
1858,0.297887
1860,0.298846
1862,0.300215
1864,0.301969
1866,0.304217
1868,0.306962
1870,0.31023
1872,0.314295
1874,0.318921
1876,0.32434
1878,0.330519
1880,0.337621
1882,0.345749
1884,0.354907
1886,0.365435
1888,0.377011
1890,0.389845
1892,0.403671
1894,0.418267
1896,0.433831
1898,0.449696
1900,0.46597
1902,0.482083
1904,0.497706
1906,0.512739
1908,0.526816
1910,0.540092
1912,0.552246
1914,0.563507
1916,0.573672
1918,0.582721
1920,0.590778
1922,0.597735
1924,0.603642
1926,0.608392
1928,0.612011
1930,0.614365
1932,0.615549
1934,0.615675
1936,0.614801
1938,0.612895
1940,0.610322
1942,0.607183
1944,0.603539
1946,0.599549
1948,0.595328
1950,0.591001
1952,0.586533
1954,0.582042
1956,0.577542
1958,0.57312
1960,0.568704
1962,0.564343
1964,0.560006
1966,0.555729
1968,0.551502
1970,0.547261
1972,0.543091
1974,0.538924
1976,0.53475
1978,0.530615
1980,0.526475
1982,0.52238
1984,0.518353
1986,0.514449
1988,0.510713
1990,0.507091
1992,0.503689
1994,0.500487
1996,0.497528
1998,0.494877
2000,0.492525
2002,0.490578
2004,0.488988
2006,0.487775
2008,0.486965
2010,0.486584
2012,0.486629
2014,0.487103
2016,0.487988
2018,0.489365
2020,0.491126
2022,0.493329
2024,0.495883
2026,0.498894
2028,0.502295
2030,0.505912
2032,0.509753
2034,0.513798
2036,0.518005
2038,0.522355
2040,0.526809
2042,0.53134
2044,0.535907
2046,0.540411
2048,0.544916
2050,0.549207
2052,0.553379
2054,0.557391
2056,0.561162
2058,0.564716
2060,0.568025
2062,0.571238
2064,0.574225
2066,0.577125
2068,0.57977
2070,0.582305
2072,0.584666
2074,0.586923
2076,0.58909
2078,0.591114
2080,0.592981
2082,0.59467
2084,0.596243
2086,0.597698
2088,0.599041
2090,0.600243
2092,0.601283
2094,0.602248
2096,0.603036
2098,0.603722
2100,0.60422
2102,0.604544
2104,0.604731
2106,0.604799
2108,0.604683
2110,0.60448
2112,0.604095
2114,0.603576
2116,0.602897
2118,0.602098
2120,0.601118
2122,0.60002
2124,0.598735
2126,0.597234
2128,0.59562
2130,0.593894
2132,0.592127
2134,0.590281
2136,0.588454
2138,0.58656
2140,0.58464
2142,0.582555
2144,0.580485
2146,0.578186
2148,0.57586
2150,0.573413
2152,0.570959
2154,0.568523
2156,0.566085
2158,0.563714
2160,0.56134
2162,0.559026
2164,0.556711
2166,0.554468
2168,0.552199
2170,0.549994
2172,0.547662
2174,0.545332
2176,0.542912
2178,0.540468
2180,0.538003
2182,0.535506
2184,0.533016
2186,0.530438
2188,0.527939
2190,0.525327
2192,0.522907
2194,0.520503
2196,0.518249
2198,0.515929
2200,0.513744
2202,0.51159
2204,0.509541
2206,0.507608
2208,0.505744
2210,0.503914
2212,0.50227
2214,0.500787
2216,0.499363
2218,0.498177
2220,0.497117
2222,0.496299
2224,0.495806
2226,0.495599
2228,0.49586
2230,0.496513
2232,0.497636
2234,0.49921
2236,0.501391
2238,0.504156
2240,0.507456
2242,0.511355
2244,0.515823
2246,0.520848
2248,0.526326
2250,0.532373
2252,0.5386
2254,0.545143
2256,0.551709
2258,0.558522
2260,0.565133
2262,0.571794
2264,0.578235
2266,0.584663
2268,0.590941
2270,0.597306
2272,0.603573
2274,0.609793
2276,0.615676
2278,0.621241
2280,0.626104
2282,0.629896
2284,0.632538
2286,0.634177
2288,0.634906
2290,0.63515
2292,0.63551
2294,0.636182
2296,0.637401
2298,0.639221
2300,0.641639
2302,0.644522
2304,0.647468
2306,0.650194
2308,0.652259
2310,0.653523
2312,0.653935
2314,0.653863
2316,0.653367
2318,0.652687
2320,0.65197
2322,0.651187
2324,0.650449
2326,0.649663
2328,0.648839
2330,0.648017
2332,0.647249
2334,0.646718
2336,0.646402
2338,0.646359
2340,0.646427
2342,0.646531
2344,0.646371
2346,0.645891
2348,0.644929
2350,0.643524
2352,0.64178
2354,0.640199
2356,0.638806
2358,0.637652
2360,0.636941
2362,0.636526
2364,0.6363
2366,0.636182
2368,0.636095
2370,0.635953
2372,0.635816
2374,0.635636
2376,0.635566
2378,0.635391
2380,0.635277
2382,0.635282
2384,0.635363
2386,0.635666
2388,0.636075
2390,0.636695
2392,0.637623
2394,0.638859
2396,0.640375
2398,0.642257
2400,0.644365
2402,0.646786
2404,0.649339
2406,0.652319
2408,0.655425
2410,0.658608
2412,0.661948
2414,0.665392
2416,0.668848
2418,0.67251
2420,0.675992
2422,0.679696
2424,0.683351
2426,0.686995
2428,0.69065
2430,0.694532
2432,0.698452
2434,0.702482
2436,0.70655
2438,0.710921
2440,0.715039
2442,0.719212
2444,0.723318
2446,0.727433
2448,0.731426
2450,0.735409
2452,0.739297
2454,0.742986
2456,0.746794
2458,0.750278
2460,0.753946
2462,0.75739
2464,0.760989
2466,0.764346
2468,0.767583
2470,0.770538
2472,0.773356
2474,0.775882
2476,0.778384
2478,0.780462
2480,0.782247
2482,0.783709
2484,0.785033
2486,0.785874
2488,0.786423
2490,0.786577
2492,0.786681
2494,0.786486
2496,0.78621
2498,0.785848
